Time (min),Force (N),Position (mm)
0.00667,0.16230366492146597,0.00020861788681889214
0.0133,0.675392670157068,0.0008811127194914721
0.02,1.2041884816753927,0.0015605529939425387
0.0267,1.7120418848167542,0.0022273114739930944
0.0333,2.204188481675393,0.002885351443657134
0.04,2.7068062827225132,0.003562069452508356
0.0467,3.193717277486911,0.00421054282286709
0.0533,3.6858638743455496,0.004885463884002555
0.06,4.157068062827225,0.005536110001800998
0.0667,4.61780104712042,0.006193682678425404
0.0733,5.115183246073298,0.006858152756164127
0.08,5.602094240837696,0.007506222623387686
0.0867,6.0732984293193715,0.008180557996056152
0.0933,6.492146596858638,0.008819168032467026
0.1,6.910994764397906,0.009487858426957528
0.107,7.225130890052355,0.010132501948558068
0.113,6.12565445026178,0.010784012088686718
0.12,6.596858638743456,0.01144620749510588
0.127,7.068062827225131,0.012084462888991742
0.133,7.5916230366492155,0.012752593467842554
0.14,8.010471204188482,0.013385331292775962
0.147,8.429319371727749,0.014040222500844279
0.153,8.900523560209423,0.01468660051360431
0.16,9.31937172774869,0.015328314350620653
0.167,9.790575916230365,0.015988253844038014
0.173,10.209424083769635,0.016616852244746256
0.18,10.680628272251308,0.017278868400485946
0.187,11.099476439790577,0.017905819487996414
0.193,11.570680628272251,0.018554725233962645
0.2,11.98952879581152,0.019198986763047744
0.207,12.408376963350786,0.0198348383113375
0.213,12.879581151832461,0.020492530291461315
0.22,13.24607329842932,0.02111538891393909
0.227,13.717277486910994,0.021763829139883922
0.233,14.136125654450263,0.02239259789544989
0.24,14.55497382198953,0.023031832238411005
0.247,14.973821989528796,0.02367398398671582
0.253,15.392670157068062,0.024300300392584684
0.26,15.811518324607329,0.024952015355086374
0.267,16.17801047120419,0.02556921719448334
0.273,16.596858638743456,0.02621550540948788
0.28,16.963350785340314,0.026842294813146057
0.287,17.329842931937172,0.027472001531540155
0.293,17.643979057591626,0.02811205026267759
0.3,17.905759162303664,0.02873268735134639
0.307,18.167539267015705,0.029378496530219195
0.313,18.324607329842934,0.029986404533858823
0.32,18.376963350785342,0.030619449437644792
0.327,18.376963350785342,0.031247973820811393
0.333,18.272251308900525,0.031868303596952294
0.34,18.115183246073297,0.03250626585508925
0.347,17.905759162303664,0.03311394409571411
0.353,17.696335078534034,0.03375026628929669
0.36,17.486910994764397,0.034360054440803235
0.367,17.329842931937172,0.034983739096076105
0.373,17.12041884816754,0.03560661862418273
0.38,16.963350785340314,0.036225037659316936
0.387,16.75392670157068,0.036857272865160016
0.393,16.649214659685864,0.037459499403149105
0.4,16.544502617801047,0.03808647375377286
0.407,16.49214659685864,0.03869807928848519
0.413,16.43979057591623,0.039312541131795734
0.42,16.335078534031414,0.0399371045410219
0.427,16.282722513089006,0.04054273551087322
0.433,16.230366492146597,0.041172939937412
0.44,16.17801047120419,0.04176616830962271
0.447,16.12565445026178,0.04238754651395136
0.453,16.12565445026178,0.04299730230735611
0.46,16.073298429319372,0.04360628207590151
0.467,16.020942408376964,0.044228873318934055
0.473,16.020942408376964,0.04482551143200963
0.48,16.020942408376964,0.045450104098551644
0.487,15.968586387434556,0.04604163615126625
0.493,15.968586387434556,0.04665032710403147
0.5,15.968586387434556,0.047258241778851386
0.507,15.916230366492147,0.04785824333594486
0.513,15.916230366492147,0.04847531280437552
0.52,15.863874345549737,0.04906666267324583
0.527,15.916230366492147,0.04968216732328391
0.533,15.863874345549737,0.05027556964770459
0.54,15.863874345549737,0.050875324626795955
0.547,15.863874345549737,0.051481406794978084
0.553,15.863874345549737,0.05207256496475129
0.56,15.811518324607329,0.052687718879486214
0.567,15.811518324607329,0.05327031741535342
0.573,15.811518324607329,0.053873345675195465
0.58,15.811518324607329,0.05446856666368862
0.587,15.811518324607329,0.05505952380952381
0.593,15.811518324607329,0.05566729746108346
0.6,15.75916230366492,0.056249744555787164
0.607,15.75916230366492,0.05685949062986191
0.613,15.75916230366492,0.057436970736015565
0.62,15.75916230366492,0.058031211060345346
0.627,15.75916230366492,0.05862819149133308
0.633,15.75916230366492,0.05921047758031898
0.64,15.75916230366492,0.05981988517957811
0.647,15.75916230366492,0.06039374680940791
0.653,15.75916230366492,0.06099468020214493
0.66,15.75916230366492,0.06157404328582091
0.667,15.706806282722512,0.062159617479277056
0.673,15.75916230366492,0.06275483659093677
0.68,15.706806282722512,0.06333203035689262
0.687,15.706806282722512,0.06393266211654407
0.693,15.706806282722512,0.06449807006688471
0.7,15.706806282722512,0.06509032552524256
0.707,15.706806282722512,0.06566808410458631
0.713,15.706806282722512,0.06624512903462981
0.72,15.706806282722512,0.06683860349090535
0.727,15.706806282722512,0.06740735573269105
0.733,15.706806282722512,0.06799935420427693
0.74,15.706806282722512,0.06856669282502988
0.747,15.706806282722512,0.06914698682146679
0.753,15.706806282722512,0.069726558208015
0.76,15.706806282722512,0.07029519957541042
0.767,15.706806282722512,0.07088693718244635
0.773,15.706806282722512,0.0714473722691779
0.78,15.706806282722512,0.07203425435760294
0.787,15.706806282722512,0.07260007886550511
0.793,15.706806282722512,0.0731719776831489
0.8,15.706806282722512,0.0737533047679825
0.807,15.706806282722512,0.07431703548208403
0.813,15.706806282722512,0.07490029683317248
0.82,15.654450261780106,0.07545590215848287
0.827,15.706806282722512,0.07603100752634585
0.833,15.654450261780106,0.07659868397135276
0.84,15.706806282722512,0.07716231043678563
0.847,15.706806282722512,0.07774534152469754
0.853,15.706806282722512,0.07830088033152138
0.86,15.706806282722512,0.07887913371121048
0.867,15.654450261780106,0.07943330784257585
0.873,15.654450261780106,0.0799968125873822
0.88,15.706806282722512,0.08056628429324868
0.887,15.706806282722512,0.08112175498509536
0.893,15.706806282722512,0.08169647537753484
0.9,15.706806282722512,0.08224394967517216
0.907,15.706806282722512,0.08281726758986765
0.913,15.706806282722512,0.08337002259095928
0.92,15.654450261780106,0.08392871955595789
0.927,15.706806282722512,0.0844966353449177
0.933,15.706806282722512,0.08504407277862029
0.94,15.706806282722512,0.08561719039682054
0.947,15.706806282722512,0.08616328894869202
0.953,15.706806282722512,0.08672515460952107
0.96,15.706806282722512,0.08727977031072016
0.967,15.706806282722512,0.08783371280408538
0.973,15.706806282722512,0.08839679862182824
0.98,15.706806282722512,0.08893958306431943
0.987,15.706806282722512,0.08950783238341041
0.993,15.706806282722512,0.09004603507263512
1.0,15.706806282722512,0.09059988184959095
1.01,15.706806282722512,0.0911530548349584
1.01,15.706806282722512,0.09169581107272871
1.02,15.75916230366492,0.09226062841295708
1.03,15.706806282722512,0.09279558255738783
1.03,15.706806282722512,0.09335579716870009
1.04,15.706806282722512,0.09389592645574181
1.05,15.75916230366492,0.0944450980601873
1.05,15.75916230366492,0.09499682892589663
1.06,15.75916230366492,0.09553178457988519
1.07,15.75916230366492,0.09609505948335072
1.07,15.706806282722512,0.0966222920897545
1.08,15.75916230366492,0.09717137393455559
1.09,15.75916230366492,0.09771337835293617
1.09,15.75916230366492,0.09825153101979232
1.1,15.75916230366492,0.09880502966137777
1.11,15.75916230366492,0.09933549398256825
1.11,15.75916230366492,0.09989085290657293
1.12,15.75916230366492,0.10042004009151632
1.13,15.75916230366492,0.1009613342583285
1.13,15.75916230366492,0.10150197740312848
1.14,15.75916230366492,0.10203244703228795
1.15,15.75916230366492,0.10258448601763033
1.15,15.75916230366492,0.10310734463276836
1.16,15.75916230366492,0.10365490007869486
1.17,15.75916230366492,0.10418283134654724
1.17,15.75916230366492,0.10471645242131902
1.18,15.75916230366492,0.10525889369137069
1.19,15.75916230366492,0.10578178963340575
1.19,15.75916230366492,0.10632922971912702
1.2,15.75916230366492,0.10684773512057558
1.21,15.75916230366492,0.10738446075830149
1.21,15.811518324607329,0.10791427547888145
1.22,15.811518324607329,0.10844033219372819
1.23,15.811518324607329,0.10898139735570937
1.23,15.75916230366492,0.10949995267027307
1.24,15.811518324607329,0.11004285108634336
1.25,15.811518324607329,0.11055705741459247
1.25,15.811518324607329,0.11108933552178007
1.26,15.811518324607329,0.11161786977157388
1.27,15.811518324607329,0.1121364653243848
1.27,15.811518324607329,0.11267925451083824
1.28,15.811518324607329,0.11319041966343132
1.29,15.811518324607329,0.11372573649740225
1.29,15.811518324607329,0.11423878587943187
1.3,15.811518324607329,0.11476049740701501
1.31,15.863874345549737,0.11529083942877047
1.31,15.811518324607329,0.11580515687496303
1.32,15.863874345549737,0.11634039681186749
1.33,15.811518324607329,0.11684735367134205
1.33,15.863874345549737,0.11737213189379277
1.34,15.863874345549737,0.11789015996054816
1.35,15.811518324607329,0.11840452043288421
1.35,15.863874345549737,0.11893356273435848
1.36,15.863874345549737,0.11944060210848909
1.37,15.863874345549737,0.11997145104234878
1.37,15.863874345549737,0.12047425136430373
1.38,15.863874345549737,0.12099168748832026
1.39,15.863874345549737,0.12150851514187291
1.39,15.863874345549737,0.12201866574490149
1.4,15.863874345549737,0.12254338055708132
1.41,15.863874345549737,0.12304324708774401
1.41,15.863874345549737,0.12356673832256196
1.42,15.863874345549737,0.12407148128478712
1.43,15.863874345549737,0.12458167756344199
1.43,15.863874345549737,0.12509730709084524
1.44,15.863874345549737,0.1256002891715579
1.45,15.863874345549737,0.1261237395023034
1.45,15.863874345549737,0.1266195362143427
1.46,15.916230366492147,0.12713576818925348
1.47,15.916230366492147,0.12763940597051834
1.47,15.916230366492147,0.12814246289456704
1.48,15.916230366492147,0.12865988576525275
1.49,15.916230366492147,0.12915579539961122
1.49,15.916230366492147,0.12967201655679061
1.5,15.916230366492147,0.13016677511044142
1.51,15.916230366492147,0.13067287288657678
1.51,15.916230366492147,0.13118432574430824
1.52,15.916230366492147,0.13168033529445952
1.53,15.916230366492147,0.132196533569303
1.53,15.916230366492147,0.13268546531083325
1.54,15.968586387434556,0.13319751152608428
1.55,15.916230366492147,0.13369122572459569
1.55,15.968586387434556,0.13418732913834597
1.56,15.968586387434556,0.13469465622849514
1.57,15.968586387434556,0.1351866668936518
1.57,15.916230366492147,0.1356987059299916
1.58,15.968586387434556,0.13618370039857983
1.59,15.968586387434556,0.13668575701442823
1.59,15.968586387434556,0.13718136855263874
1.6,15.968586387434556,0.13767348379912547
1.61,15.968586387434556,0.13817965900415644
1.61,15.968586387434556,0.1386647947885829
1.62,15.968586387434556,0.13916980722826233
1.63,15.968586387434556,0.13965382921789793
1.63,15.968586387434556,0.14014895057549084
1.64,15.968586387434556,0.14064640983046375
1.65,15.968586387434556,0.14113167736307136
1.65,16.020942408376964,0.14163670280353619
1.66,16.020942408376964,0.1421150579072336
1.67,16.020942408376964,0.14261313962241223
1.67,15.968586387434556,0.14309618913958763
1.68,16.020942408376964,0.1435844698821586
1.69,16.020942408376964,0.14408084729256596
1.69,16.020942408376964,0.14455936387548288
1.7,16.020942408376964,0.14506036748940584
1.71,16.073298429319372,0.14553491532721977
1.71,16.073298429319372,0.14602903501280956
1.72,16.073298429319372,0.14651398003380342
1.73,16.073298429319372,0.1469955099724285
1.73,16.073298429319372,0.14749080364095266
1.74,16.073298429319372,0.1479655160846667
1.75,16.073298429319372,0.14845682944327854
1.75,16.073298429319372,0.14893331859044592
1.76,16.073298429319372,0.1494149716360032
1.77,16.073298429319372,0.1499017701454873
1.77,16.073298429319372,0.1503766440546435
1.78,16.073298429319372,0.15087085882392273
1.79,16.073298429319372,0.15133897993618337
1.79,16.12565445026178,0.15182641159126048
1.8,16.12565445026178,0.1523019673936623
1.81,16.12565445026178,0.1527798161465491
1.81,16.12565445026178,0.1532655945808998
1.82,16.12565445026178,0.1537338992876705
1.83,16.12565445026178,0.15422421715792697
1.83,16.12565445026178,0.15468864919911743
1.84,16.12565445026178,0.15516662176410523
1.85,16.12565445026178,0.15564405410526527
1.85,16.12565445026178,0.15611533976324715
1.86,16.12565445026178,0.15660010227053878
1.87,16.12565445026178,0.1570619293989586
1.87,16.12565445026178,0.15754560530679934
1.88,16.12565445026178,0.1580091889705834
1.89,16.12565445026178,0.15848062683254097
1.89,16.12565445026178,0.1589598916581404
1.9,16.12565445026178,0.1594247023238267
1.91,16.17801047120419,0.15990844986571767
1.91,16.17801047120419,0.16036388639128368
1.92,16.17801047120419,0.16084100910520543
1.93,16.17801047120419,0.16130651275210334
1.93,16.17801047120419,0.16177426646998064
1.94,16.17801047120419,0.162252551171857
1.95,16.17801047120419,0.16271097046413502
1.95,16.17801047120419,0.16319370089116578
1.96,16.17801047120419,0.1636483371748436
1.97,16.17801047120419,0.16411898470074474
1.97,16.17801047120419,0.1645863551297358
1.98,16.230366492146597,0.16504771390721512
1.99,16.230366492146597,0.1655250128949383
1.99,16.230366492146597,0.16597712019123423
2.0,16.230366492146597,0.16645062204442754
2.01,16.230366492146597,0.16690445968506368
2.01,16.230366492146597,0.16736872125537194
2.02,16.230366492146597,0.1678379184153537
2.03,16.230366492146597,0.16829024705709
2.03,16.230366492146597,0.16876656739863208
2.04,16.230366492146597,0.16921245265492227
2.05,16.230366492146597,0.169679574771335
2.05,16.230366492146597,0.17013532675104714
2.06,16.230366492146597,0.1705932870302342
2.07,16.282722513089006,0.1710588580846238
2.07,16.230366492146597,0.1715103952613004
2.08,16.282722513089006,0.17198033616294384
2.09,16.282722513089006,0.1724227811807637
2.09,16.282722513089006,0.17288360779052464
2.1,16.282722513089006,0.1733385406496127
2.11,16.282722513089006,0.17379297333693308
2.11,16.282722513089006,0.17425764461869558
2.12,16.282722513089006,0.17470302305632815
2.13,16.282722513089006,0.17516935007241624
2.13,16.282722513089006,0.1756110701801647
2.14,16.282722513089006,0.17606568118931998
2.15,16.335078534031414,0.1765197910824226
2.15,16.335078534031414,0.1769680670090566
2.16,16.335078534031414,0.1774318385693791
2.17,16.335078534031414,0.17787113939291935
2.17,16.335078534031414,0.17833123602920484
2.18,16.335078534031414,0.17877223215527027
2.19,16.335078534031414,0.1792207120745035
2.19,16.335078534031414,0.17967665049703843
2.2,16.335078534031414,0.18011620400258233
2.21,16.335078534031414,0.1805790789579805
2.21,16.335078534031414,0.18101238476940984
2.22,16.387434554973822,0.18146633538611265
2.23,16.387434554973822,0.18190924345929999
2.23,16.335078534031414,0.182354304550488
2.24,16.335078534031414,0.18280676919117175
2.25,16.335078534031414,0.18324560190618902
2.25,16.387434554973822,0.1836997043321764
2.26,16.387434554973822,0.1841323375893359
2.27,16.387434554973822,0.18458021932865912
2.27,16.387434554973822,0.18502237979882244
2.28,16.387434554973822,0.18546144891656752
2.29,16.387434554973822,0.1859130914149087
2.29,16.387434554973822,0.18634598874979177
2.3,16.387434554973822,0.18679665113896496
2.31,16.387434554973822,0.18722860955294374
2.31,16.387434554973822,0.18767050124567852
2.32,16.387434554973822,0.18811450781839337
2.33,16.387434554973822,0.1885476600461953
2.33,16.43979057591623,0.1889984769774548
2.34,16.43979057591623,0.1894255133106543
2.35,16.387434554973822,0.18987018786081078
2.35,16.387434554973822,0.19030146925217645
2.36,16.43979057591623,0.19073744846526863
2.37,16.43979057591623,0.19118068514001493
2.37,16.43979057591623,0.19161057271526555
2.38,16.43979057591623,0.19205542372557877
2.39,16.43979057591623,0.19247924767042981
2.39,16.43979057591623,0.1929205789364981
2.4,16.43979057591623,0.19335374296566354
2.41,16.43979057591623,0.19378388329545598
2.41,16.49214659685864,0.1942263462606075
2.42,16.43979057591623,0.19465044975918783
2.43,16.49214659685864,0.1950919623277687
2.43,16.49214659685864,0.1955151553542584
2.44,16.49214659685864,0.19595063010246883
2.45,16.49214659685864,0.1963805486126491
2.45,16.49214659685864,0.19680746779324432
2.46,16.49214659685864,0.19724915616348307
2.47,16.49214659685864,0.19766755007470538
2.47,16.49214659685864,0.19810576164167326
2.48,16.49214659685864,0.1985257923235179
2.49,16.49214659685864,0.1989554884163918
2.49,16.49214659685864,0.19938724756270154
2.5,16.49214659685864,0.19980845808760522
2.51,16.49214659685864,0.20024685293987998
2.51,16.49214659685864,0.20066212869339728
2.52,16.49214659685864,0.20109456335414475
2.53,16.49214659685864,0.20151900007544704
2.53,16.544502617801047,0.20194047858435554
2.54,16.49214659685864,0.20237403633280474
2.55,16.544502617801047,0.20278960864502482
2.55,16.544502617801047,0.20322474394968398
2.56,16.544502617801047,0.20363693368866595
2.57,16.544502617801047,0.2040611682125846
2.57,16.596858638743456,0.20448495098499797
2.58,16.544502617801047,0.20490579385774074
2.59,16.544502617801047,0.20533862273294687
2.59,16.544502617801047,0.20574862882194386
2.6,16.596858638743456,0.20617805988667723
2.61,16.596858638743456,0.2065896787937664
2.61,16.596858638743456,0.20700829831473655
2.62,16.596858638743456,0.20743389561842002
2.63,16.596858638743456,0.20784668402750708
2.63,16.596858638743456,0.20827631779913286
2.64,16.596858638743456,0.20868329885601777
2.65,16.596858638743456,0.2091071005990858
2.65,16.596858638743456,0.20952060848240409
2.66,16.596858638743456,0.2099336841974295
2.67,16.596858638743456,0.21035860289431552
2.67,16.596858638743456,0.21076589887238958
2.68,16.596858638743456,0.21119237278924244
2.69,16.596858638743456,0.2115963621690412
2.69,16.649214659685864,0.21201216107215987
2.7,16.596858638743456,0.21242752162723638
2.71,16.649214659685864,0.21283756562269507
2.71,16.649214659685864,0.21325936732424555
2.72,16.649214659685864,0.213661242786735
2.73,16.649214659685864,0.21408216244983586
2.73,16.649214659685864,0.21448805650737887
2.74,16.649214659685864,0.21489838497797698
2.75,16.649214659685864,0.2153131333102664
2.75,16.649214659685864,0.21571775719980363
2.76,16.649214659685864,0.21613889771847042
2.77,16.649214659685864,0.21654025410005462
2.77,16.649214659685864,0.21695568400770712
2.78,16.701570680628272,0.2173586161421326
2.79,16.649214659685864,0.21776595187720774
2.79,16.701570680628272,0.21818008329152344
2.8,16.701570680628272,0.21858175665282267
2.81,16.701570680628272,0.21899982781098568
2.81,16.701570680628272,0.21939586156876845
2.82,16.701570680628272,0.21980587295736578
2.83,16.701570680628272,0.2202106659216711
2.83,16.701570680628272,0.22061264755428864
2.84,16.701570680628272,0.22102616002698808
2.85,16.701570680628272,0.22142014192223397
2.85,16.75392670157068,0.22183279821573001
2.86,16.701570680628272,0.2222307280104111
2.87,16.75392670157068,0.2226330093284039
2.87,16.75392670157068,0.2230396280378692
2.88,16.75392670157068,0.22343632483597387
2.89,16.75392670157068,0.22384921896008017
2.89,16.75392670157068,0.22424035110759544
2.9,16.75392670157068,0.22464765730647485
2.91,16.75392670157068,0.22504507857859843
2.91,16.75392670157068,0.22544209264810375
2.92,16.80628272251309,0.22584813822572927
2.93,16.80628272251309,0.22623961592240463
2.93,16.80628272251309,0.22665188983138576
2.94,16.75392670157068,0.2270402030388884
2.95,16.80628272251309,0.22743987566040205
2.95,16.80628272251309,0.2278391351798314
2.96,16.80628272251309,0.2282332923142367
2.97,16.80628272251309,0.2286387599912539
2.97,16.80628272251309,0.2290274211270769
2.98,16.80628272251309,0.2294320550197648
2.99,16.80628272251309,0.22982225267894504
2.99,16.80628272251309,0.23021672126874834
3.0,16.80628272251309,0.23061544706089046
3.01,16.80628272251309,0.23100444745853027
3.01,16.858638743455497,0.23140700932599845
3.02,16.80628272251309,0.23179056312171284
3.03,16.858638743455497,0.23218998159069681
3.03,16.858638743455497,0.23257971049522783
3.04,16.858638743455497,0.23297136023771847
