Time (min),Force (N),Position (mm)
0.00353,0.0760,0.0000
0.00707,3.79,0.0064000
0.0106,9.30,0.015500
0.0141,14.3,0.024500
0.0177,19.7,0.033600
0.0212,24.4,0.042900
0.0247,30.0,0.052000
0.0283,34.6,0.060600
0.0318,39.7,0.069600
0.0353,45.0,0.078700
0.0389,50.0,0.088000
0.0424,54.9,0.096700
0.0459,59.7,0.10550
0.0495,64.9,0.11450
0.0530,69.8,0.12380
0.0565,74.8,0.13280
0.0601,79.4,0.14150
0.0636,84.6,0.15040
0.0671,89.0,0.15950
0.0707,94.3,0.16880
0.0742,98.8,0.17750
0.0777,104,0.18640
0.0813,108,0.19530
0.0848,113,0.20470
0.0883,118,0.21360
0.0919,122,0.22230
0.0954,127,0.23130
0.0989,131,0.24040
0.102,135,0.24960
0.106,138,0.25840
0.110,137,0.26720
0.113,116,0.27620
0.117,121,0.28570
0.120,126,0.29450
0.124,131,0.30320
0.127,136,0.31210
0.131,141,0.32120
0.134,146,0.33050
0.138,150,0.33910
0.141,154,0.34800
0.145,159,0.35700
0.148,164,0.36640
0.152,168,0.37520
0.155,173,0.38390
0.159,177,0.39280
0.163,182,0.40200
0.166,187,0.41120
0.170,190,0.41990
0.173,195,0.42870
0.177,199,0.43770
0.180,205,0.44710
0.184,208,0.45590
0.187,213,0.46470
0.191,218,0.47360
0.194,222,0.48280
0.198,226,0.49200
0.201,231,0.50070
0.205,235,0.50960
0.208,239,0.51870
0.212,244,0.52800
0.216,248,0.53670
0.219,252,0.54550
0.223,257,0.55450
0.226,261,0.56370
0.230,266,0.57280
0.233,269,0.58150
0.237,274,0.59040
0.240,278,0.59950
0.244,283,0.60880
0.247,286,0.61760
0.251,291,0.62640
0.254,295,0.63530
0.258,299,0.64460
0.261,303,0.65370
0.265,307,0.66240
0.269,311,0.67120
0.272,315,0.68040
0.276,319,0.68970
0.279,323,0.69840
0.283,326,0.70720
0.286,330,0.71630
0.290,334,0.72560
0.293,337,0.73450
0.297,340,0.74330
0.300,343,0.75220
0.304,345,0.76130
0.307,348,0.77060
0.311,349,0.77930
0.314,350,0.78810
0.318,351,0.79710
0.322,351,0.80650
0.325,351,0.81530
0.329,350,0.82410
0.332,349,0.83300
0.336,348,0.84210
0.339,346,0.85140
0.343,344,0.86010
0.346,342,0.86890
0.350,340,0.87790
0.353,338,0.88720
0.357,336,0.89610
0.360,334,0.90480
0.364,332,0.91380
0.367,330,0.92290
0.371,328,0.93210
0.375,326,0.94080
0.378,325,0.94970
0.382,323,0.95870
0.385,321,0.96810
0.389,320,0.97690
0.392,319,0.98560
0.396,317,0.99460
0.399,317,1.0038
0.403,316,1.0130
0.406,315,1.0216
0.410,314,1.0305
0.413,313,1.0396
0.417,313,1.0490
0.420,312,1.0578
0.424,312,1.0665
0.428,311,1.0755
0.431,310,1.0847
0.435,310,1.0938
0.438,309,1.1025
0.442,309,1.1114
0.445,309,1.1204
0.449,309,1.1298
0.452,308,1.1385
0.456,308,1.1474
0.459,307,1.1563
0.463,307,1.1656
0.466,306,1.1747
0.470,306,1.1834
0.473,306,1.1923
0.477,306,1.2014
0.481,306,1.2107
0.484,306,1.2194
0.488,305,1.2282
0.491,305,1.2372
0.495,305,1.2465
0.498,305,1.2555
0.502,305,1.2643
0.505,304,1.2732
0.509,304,1.2822
0.512,304,1.2916
0.516,304,1.3003
0.519,303,1.3090
0.523,304,1.3180
0.526,304,1.3274
0.530,303,1.3364
0.534,303,1.3451
0.537,303,1.3540
0.541,303,1.3631
0.544,303,1.3724
0.548,303,1.3811
0.551,302,1.3899
0.555,303,1.3988
0.558,302,1.4082
0.562,302,1.4172
0.565,302,1.4259
0.569,302,1.4348
0.572,302,1.4438
0.576,302,1.4532
0.579,302,1.4619
0.583,302,1.4707
0.587,302,1.4797
0.590,302,1.4891
0.594,302,1.4980
0.597,302,1.5067
0.601,301,1.5156
0.604,301,1.5247
0.608,302,1.5340
0.611,301,1.5427
0.615,301,1.5515
0.618,301,1.5605
0.622,301,1.5698
0.625,301,1.5787
0.629,301,1.5875
0.632,301,1.5965
0.636,301,1.6056
0.640,301,1.6149
0.643,301,1.6235
0.647,301,1.6324
0.650,300,1.6414
0.654,301,1.6508
0.657,301,1.6597
0.661,301,1.6685
0.664,300,1.6774
0.668,300,1.6865
0.671,300,1.6958
0.675,300,1.7045
0.678,300,1.7133
0.682,301,1.7223
0.685,300,1.7317
0.689,300,1.7405
0.693,300,1.7492
0.696,300,1.7582
0.700,300,1.7673
0.703,300,1.7766
0.707,300,1.7852
0.710,300,1.7941
0.714,300,1.8031
0.717,300,1.8124
0.721,300,1.8213
0.724,300,1.8300
0.728,300,1.8389
0.731,300,1.8481
0.735,300,1.8573
0.738,300,1.8660
0.742,300,1.8748
0.746,300,1.8838
0.749,300,1.8932
0.753,300,1.9020
0.756,300,1.9108
0.760,300,1.9197
0.763,300,1.9288
0.767,300,1.9381
0.770,300,1.9468
0.774,300,1.9556
0.777,300,1.9646
0.781,300,1.9740
0.784,300,1.9828
0.788,300,1.9915
0.791,300,2.0005
0.795,300,2.0096
0.799,300,2.0189
0.802,300,2.0276
0.806,300,2.0364
0.809,300,2.0454
0.813,300,2.0548
0.816,300,2.0636
0.820,299,2.0723
0.823,299,2.0813
0.827,300,2.0905
0.830,300,2.0997
0.834,300,2.1083
0.837,299,2.1172
0.841,300,2.1262
0.844,300,2.1356
0.848,300,2.1444
0.852,299,2.1532
0.855,300,2.1621
0.859,300,2.1713
0.862,300,2.1805
0.866,300,2.1892
0.869,299,2.1980
0.873,300,2.2070
0.876,300,2.2164
0.880,300,2.2252
0.883,300,2.2340
0.887,300,2.2429
0.890,300,2.2521
0.894,300,2.2612
0.897,300,2.2699
0.901,299,2.2788
0.905,300,2.2878
0.908,300,2.2972
0.912,300,2.3059
0.915,299,2.3147
0.919,300,2.3237
0.922,300,2.3329
0.926,300,2.3420
0.929,300,2.3507
0.933,300,2.3596
0.936,300,2.3686
0.940,300,2.3780
0.943,300,2.3868
0.947,300,2.3955
0.950,300,2.4045
0.954,300,2.4138
0.958,300,2.4229
0.961,300,2.4316
0.965,300,2.4405
0.968,300,2.4495
0.972,300,2.4589
0.975,300,2.4676
0.979,300,2.4764
0.982,300,2.4854
0.986,300,2.4946
0.989,300,2.5036
0.993,300,2.5124
0.996,300,2.5213
1.00,300,2.5303
1.00,300,2.5396
1.01,300,2.5484
1.01,300,2.5572
1.01,300,2.5661
1.02,300,2.5754
1.02,301,2.5844
1.02,300,2.5931
1.03,300,2.6020
1.03,300,2.6111
1.04,300,2.6205
1.04,300,2.6292
1.04,300,2.6380
1.05,301,2.6470
1.05,301,2.6563
1.05,301,2.6652
1.06,300,2.6739
1.06,301,2.6828
1.06,301,2.6920
1.07,300,2.7012
1.07,300,2.7099
1.07,300,2.7187
1.08,300,2.7277
1.08,301,2.7371
1.08,301,2.7460
1.09,300,2.7547
1.09,301,2.7636
1.10,301,2.7727
1.10,301,2.7820
1.10,301,2.7907
1.11,301,2.7995
1.11,301,2.8085
1.11,301,2.8179
1.12,301,2.8268
1.12,301,2.8355
1.12,301,2.8445
1.13,301,2.8536
1.13,301,2.8629
1.13,301,2.8716
1.14,301,2.8804
1.14,301,2.8893
1.14,301,2.8987
1.15,301,2.9076
1.15,301,2.9163
1.16,301,2.9252
1.16,301,2.9344
1.16,301,2.9437
1.17,301,2.9523
1.17,301,2.9612
1.17,301,2.9702
1.18,302,2.9796
1.18,301,2.9884
1.18,301,2.9971
1.19,301,3.0061
1.19,302,3.0153
1.19,302,3.0245
1.20,302,3.0331
1.20,301,3.0420
1.20,301,3.0510
1.21,302,3.0604
1.21,301,3.0691
1.22,302,3.0779
1.22,301,3.0868
1.22,302,3.0960
1.23,302,3.1052
1.23,301,3.1139
1.23,301,3.1228
1.24,302,3.1318
1.24,302,3.1412
1.24,302,3.1499
1.25,302,3.1587
1.25,302,3.1677
1.25,302,3.1769
1.26,302,3.1861
1.26,302,3.1948
1.26,302,3.2036
1.27,302,3.2127
1.27,302,3.2220
1.28,302,3.2308
1.28,302,3.2396
1.28,302,3.2486
1.29,302,3.2578
1.29,303,3.2669
1.29,302,3.2756
1.30,302,3.2845
1.30,302,3.2935
1.30,302,3.3029
1.31,303,3.3116
1.31,302,3.3204
1.31,303,3.3294
1.32,302,3.3387
1.32,303,3.3477
1.33,302,3.3564
1.33,302,3.3653
1.33,302,3.3744
1.34,303,3.3838
1.34,303,3.3925
1.34,302,3.4012
1.35,303,3.4102
1.35,302,3.4195
1.35,303,3.4285
1.36,303,3.4372
1.36,302,3.4461
1.36,303,3.4552
1.37,303,3.4646
1.37,303,3.4732
1.37,303,3.4820
1.38,303,3.4910
1.38,303,3.5003
1.39,303,3.5093
1.39,303,3.5181
1.39,303,3.5269
1.40,303,3.5360
1.40,303,3.5453
1.40,303,3.5540
1.41,303,3.5628
1.41,303,3.5718
1.41,303,3.5811
1.42,303,3.5901
1.42,303,3.5988
1.42,303,3.6077
1.43,303,3.6168
1.43,303,3.6261
1.43,304,3.6348
1.44,304,3.6436
1.44,303,3.6526
1.45,304,3.6619
1.45,304,3.6709
1.45,303,3.6796
1.46,304,3.6885
1.46,304,3.6976
1.46,304,3.7069
1.47,304,3.7156
1.47,304,3.7244
1.47,304,3.7334
1.48,304,3.7427
1.48,304,3.7517
1.48,304,3.7604
1.49,304,3.7693
1.49,304,3.7784
1.49,304,3.7877
1.50,304,3.7964
1.50,304,3.8052
1.51,304,3.8142
1.51,304,3.8236
1.51,304,3.8326
1.52,304,3.8413
1.52,304,3.8502
1.52,304,3.8593
1.53,304,3.8686
1.53,304,3.8773
1.53,304,3.8861
1.54,304,3.8951
1.54,304,3.9045
1.54,304,3.9133
1.55,304,3.9221
1.55,304,3.9310
1.55,304,3.9402
1.56,305,3.9494
1.56,305,3.9581
1.57,305,3.9670
1.57,305,3.9760
1.57,305,3.9853
1.58,305,3.9941
1.58,305,4.0028
1.58,305,4.0118
1.59,305,4.0209
1.59,305,4.0302
1.59,305,4.0389
1.60,305,4.0477
1.60,305,4.0567
1.60,306,4.0661
1.61,305,4.0750
1.61,305,4.0837
1.61,306,4.0926
1.62,305,4.1018
1.62,305,4.1110
1.63,306,4.1197
1.63,305,4.1286
1.63,305,4.1376
1.64,306,4.1470
1.64,306,4.1558
1.64,306,4.1645
1.65,305,4.1734
1.65,306,4.1826
1.65,306,4.1919
1.66,306,4.2005
1.66,306,4.2094
1.66,306,4.2184
1.67,306,4.2278
1.67,306,4.2365
1.67,306,4.2453
1.68,305,4.2542
1.68,306,4.2634
1.69,306,4.2726
1.69,306,4.2812
1.69,306,4.2901
1.70,306,4.2991
1.70,306,4.3085
1.70,306,4.3173
1.71,306,4.3261
1.71,306,4.3351
1.71,306,4.3442
1.72,306,4.3535
1.72,306,4.3621
1.72,306,4.3710
1.73,307,4.3800
1.73,306,4.3894
1.73,306,4.3981
1.74,306,4.4069
1.74,307,4.4158
1.75,307,4.4250
1.75,307,4.4342
1.75,307,4.4429
1.76,307,4.4517
1.76,307,4.4608
1.76,307,4.4701
1.77,307,4.4789
1.77,307,4.4877
1.77,307,4.4966
1.78,307,4.5058
1.78,307,4.5150
1.78,307,4.5236
1.79,307,4.5325
1.79,307,4.5415
1.79,307,4.5509
1.80,308,4.5597
1.80,307,4.5685
1.81,307,4.5775
1.81,308,4.5867
1.81,308,4.5958
1.82,307,4.6045
1.82,307,4.6133
1.82,308,4.6224
1.83,308,4.6317
1.83,308,4.6405
1.83,308,4.6493
1.84,308,4.6582
1.84,308,4.6674
1.84,308,4.6766
1.85,308,4.6852
1.85,308,4.6941
1.86,308,4.7031
1.86,308,4.7125
1.86,308,4.7212
1.87,308,4.7300
1.87,308,4.7389
1.87,308,4.7481
1.88,308,4.7573
1.88,308,4.7660
1.88,308,4.7748
1.89,309,4.7839
1.89,308,4.7933
1.89,308,4.8020
1.90,308,4.8108
1.90,309,4.8198
1.90,308,4.8290
1.91,309,4.8381
1.91,309,4.8468
1.92,308,4.8556
1.92,309,4.8646
1.92,309,4.8740
1.93,309,4.8828
1.93,309,4.8916
1.93,309,4.9006
1.94,309,4.9099
1.94,309,4.9189
1.94,309,4.9276
1.95,309,4.9366
1.95,309,4.9457
1.95,309,4.9550
1.96,309,4.9637
1.96,309,4.9725
1.96,309,4.9816
1.97,309,4.9908
1.97,309,4.9999
1.98,310,5.0086
1.98,309,5.0175
1.98,309,5.0266
1.99,310,5.0359
1.99,310,5.0446
1.99,309,5.0534
2.00,309,5.0624
2.00,310,5.0717
2.00,310,5.0807
2.01,310,5.0894
2.01,310,5.0984
2.01,310,5.1075
2.02,310,5.1168
2.02,310,5.1255
2.02,310,5.1343
2.03,310,5.1433
2.03,310,5.1527
2.04,310,5.1615
2.04,310,5.1703
2.04,310,5.1791
2.05,310,5.1883
2.05,310,5.1975
2.05,310,5.2062
2.06,310,5.2151
2.06,310,5.2241
2.06,311,5.2335
2.07,311,5.2423
2.07,310,5.2511
2.07,311,5.2600
2.08,310,5.2692
2.08,311,5.2784
2.08,310,5.2871
2.09,311,5.2959
2.09,311,5.3049
2.10,311,5.3143
2.10,311,5.3230
2.10,311,5.3318
2.11,311,5.3408
2.11,311,5.3501
2.11,311,5.3592
2.12,311,5.3679
2.12,311,5.3768
2.12,311,5.3858
2.13,311,5.3952
2.13,311,5.4039
2.13,311,5.4127
2.14,311,5.4217
2.14,311,5.4309
2.14,312,5.4400
2.15,311,5.4487
2.15,311,5.4576
2.16,311,5.4666
2.16,312,5.4760
2.16,311,5.4847
2.17,312,5.4935
2.17,312,5.5025
2.17,312,5.5118
2.18,312,5.5208
2.18,312,5.5294
2.18,312,5.5384
2.19,312,5.5474
2.19,312,5.5568
2.19,312,5.5655
2.20,312,5.5742
2.20,312,5.5833
2.20,312,5.5926
2.21,312,5.6016
2.21,312,5.6103
2.22,312,5.6192
2.22,312,5.6283
2.22,312,5.6376
2.23,312,5.6462
2.23,313,5.6551
2.23,312,5.6641
2.24,313,5.6735
2.24,313,5.6823
2.24,312,5.6911
2.25,312,5.7000
2.25,312,5.7091
2.25,313,5.7184
2.26,312,5.7270
2.26,313,5.7359
2.26,312,5.7449
2.27,313,5.7542
2.27,313,5.7631
2.28,313,5.7718
2.28,313,5.7808
2.28,313,5.7899
2.29,313,5.7992
2.29,313,5.8078
2.29,313,5.8167
2.30,313,5.8257
2.30,313,5.8351
2.30,313,5.8439
2.31,313,5.8526
2.31,314,5.8616
2.31,313,5.8708
2.32,314,5.8799
2.32,313,5.8886
2.32,313,5.8975
2.33,313,5.9065
2.33,314,5.9159
2.34,313,5.9246
2.34,313,5.9334
2.34,314,5.9424
2.35,313,5.9516
2.35,314,5.9607
2.35,314,5.9694
2.36,314,5.9783
2.36,314,5.9873
2.36,314,5.9967
2.37,314,6.0054
2.37,314,6.0142
2.37,314,6.0232
2.38,314,6.0324
2.38,314,6.0415
2.38,314,6.0501
2.39,314,6.0591
2.39,314,6.0681
2.40,315,6.0775
2.40,314,6.0862
2.40,314,6.0950
2.41,314,6.1040
2.41,314,6.1133
2.41,314,6.1223
2.42,314,6.1310
2.42,315,6.1399
2.42,315,6.1490
2.43,315,6.1583
2.43,314,6.1670
2.43,315,6.1759
2.44,314,6.1848
2.44,315,6.1942
2.45,315,6.2031
2.45,315,6.2118
2.45,315,6.2208
2.46,315,6.2299
2.46,315,6.2392
2.46,315,6.2479
2.47,315,6.2567
2.47,315,6.2657
2.47,315,6.2750
2.48,315,6.2840
2.48,315,6.2927
2.48,315,6.3016
2.49,315,6.3106
2.49,315,6.3200
2.49,315,6.3286
2.50,315,6.3375
2.50,315,6.3465
2.51,315,6.3558
2.51,315,6.3647
2.51,315,6.3734
2.52,315,6.3824
2.52,316,6.3915
2.52,316,6.4008
2.53,315,6.4095
2.53,315,6.4184
2.53,316,6.4273
2.54,316,6.4367
2.54,316,6.4456
2.54,316,6.4543
2.55,316,6.4633
2.55,316,6.4724
2.55,316,6.4817
2.56,316,6.4904
2.56,316,6.4992
2.57,316,6.5082
2.57,316,6.5176
2.57,316,6.5264
2.58,316,6.5351
2.58,316,6.5442
2.58,316,6.5534
2.59,316,6.5626
2.59,316,6.5713
2.59,316,6.5801
2.60,316,6.5891
2.60,317,6.5985
2.60,317,6.6073
2.61,317,6.6160
2.61,317,6.6249
2.61,317,6.6341
2.62,317,6.6433
2.62,317,6.6520
2.63,317,6.6609
2.63,317,6.6699
2.63,317,6.6793
2.64,317,6.6881
2.64,317,6.6969
2.64,317,6.7058
2.65,317,6.7150
2.65,317,6.7242
2.65,317,6.7329
2.66,317,6.7417
2.66,317,6.7508
2.66,317,6.7602
2.67,317,6.7689
2.67,317,6.7777
2.67,317,6.7866
2.68,318,6.7959
2.68,318,6.8050
2.69,317,6.8136
2.69,318,6.8225
2.69,318,6.8315
2.70,318,6.8409
2.70,318,6.8497
2.70,318,6.8584
2.71,318,6.8674
2.71,318,6.8766
2.71,318,6.8857
2.72,318,6.8944
2.72,318,6.9033
2.72,318,6.9123
2.73,318,6.9217
2.73,318,6.9304
2.73,318,6.9392
2.74,318,6.9482
2.74,318,6.9574
2.75,318,6.9665
2.75,318,6.9752
2.75,318,6.9841
2.76,318,6.9932
2.76,318,7.0026
2.76,318,7.0112
2.77,318,7.0201
2.77,318,7.0291
2.77,319,7.0384
2.78,319,7.0474
2.78,318,7.0561
2.78,319,7.0650
2.79,319,7.0740
2.79,318,7.0834
2.79,319,7.0921
2.80,319,7.1009
2.80,319,7.1099
2.81,319,7.1192
2.81,319,7.1282
2.81,319,7.1369
2.82,319,7.1458
2.82,319,7.1549
2.82,319,7.1642
2.83,319,7.1729
2.83,319,7.1817
2.83,319,7.1907
2.84,319,7.2000
2.84,319,7.2089
2.84,319,7.2176
2.85,319,7.2265
2.85,319,7.2356
2.85,320,7.2450
2.86,319,7.2537
2.86,319,7.2625
2.87,320,7.2715
2.87,319,7.2808
2.87,320,7.2897
2.88,320,7.2984
2.88,320,7.3074
2.88,320,7.3165
2.89,320,7.3257
2.89,320,7.3344
2.89,320,7.3432
2.90,320,7.3522
2.90,320,7.3616
2.90,320,7.3705
2.91,320,7.3792
2.91,320,7.3881
2.92,320,7.3973
2.92,320,7.4065
2.92,320,7.4152
2.93,320,7.4240
2.93,320,7.4331
2.93,320,7.4424
2.94,321,7.4513
2.94,320,7.4600
2.94,321,7.4690
2.95,321,7.4781
2.95,321,7.4873
2.95,321,7.4960
2.96,321,7.5048
2.96,321,7.5139
2.96,321,7.5232
2.97,321,7.5321
2.97,321,7.5408
2.98,321,7.5498
2.98,321,7.5589
2.98,322,7.5682
2.99,321,7.5768
2.99,321,7.5857
2.99,321,7.5947
3.00,321,7.6040
3.00,321,7.6129
3.00,321,7.6216
3.01,321,7.6306
3.01,321,7.6397
3.01,322,7.6489
3.02,321,7.6576
3.02,322,7.6665
3.02,322,7.6755
3.03,322,7.6848
3.03,322,7.6936
3.04,322,7.7024
3.04,322,7.7114
3.04,322,7.7206
3.05,322,7.7298
3.05,322,7.7384
3.05,322,7.7473
3.06,322,7.7563
3.06,322,7.7657
3.06,322,7.7745
3.07,322,7.7832
3.07,322,7.7922
3.07,323,7.8014
3.08,322,7.8105
3.08,322,7.8192
3.08,323,7.8281
3.09,322,7.8372
3.09,323,7.8466
3.10,322,7.8553
3.10,323,7.8640
3.10,322,7.8730
3.11,323,7.8823
3.11,323,7.8914
3.11,323,7.9000
3.12,323,7.9089
3.12,323,7.9179
3.12,323,7.9274
3.13,323,7.9361
3.13,323,7.9448
3.13,323,7.9538
3.14,323,7.9631
3.14,323,7.9722
3.14,323,7.9808
3.15,323,7.9897
3.15,323,7.9988
3.16,324,8.0082
3.16,323,8.0169
3.16,323,8.0257
3.17,323,8.0347
3.17,324,8.0439
3.17,323,8.0530
3.18,323,8.0617
3.18,323,8.0706
3.18,324,8.0797
3.19,324,8.0891
3.19,324,8.0977
3.19,324,8.1065
3.20,323,8.1155
3.20,324,8.1248
3.20,324,8.1338
3.21,324,8.1425
3.21,324,8.1514
3.22,324,8.1605
3.22,324,8.1698
3.22,324,8.1785
3.23,324,8.1873
3.23,324,8.1963
3.23,324,8.2056
3.24,324,8.2146
3.24,324,8.2233
3.24,324,8.2321
3.25,325,8.2412
3.25,325,8.2506
3.25,324,8.2592
3.26,325,8.2681
3.26,324,8.2770
3.26,324,8.2863
3.27,324,8.2953
3.27,325,8.3040
3.28,324,8.3129
3.28,325,8.3220
3.28,325,8.3313
3.29,325,8.3400
3.29,325,8.3488
3.29,325,8.3578
3.30,325,8.3672
3.30,325,8.3761
3.30,325,8.3848
3.31,325,8.3938
3.31,325,8.4029
3.31,325,8.4122
3.32,325,8.4209
3.32,325,8.4296
3.32,325,8.4387
3.33,325,8.4480
3.33,325,8.4569
3.34,325,8.4656
3.34,325,8.4746
3.34,325,8.4837
3.35,325,8.4930
3.35,325,8.5016
3.35,325,8.5104
3.36,325,8.5195
3.36,326,8.5288
3.36,326,8.5377
3.37,326,8.5464
3.37,325,8.5553
3.37,326,8.5645
3.38,326,8.5737
3.38,325,8.5824
3.38,326,8.5913
3.39,326,8.6002
3.39,326,8.6096
3.40,326,8.6184
3.40,326,8.6272
3.40,326,8.6362
3.41,325,8.6454
3.41,326,8.6545
3.41,326,8.6633
3.42,326,8.6721
3.42,326,8.6812
3.42,326,8.6905
3.43,326,8.6993
3.43,326,8.7081
3.43,326,8.7170
3.44,326,8.7262
3.44,326,8.7354
3.45,326,8.7440
3.45,326,8.7529
3.45,326,8.7620
3.46,326,8.7714
3.46,326,8.7802
3.46,326,8.7890
3.47,326,8.7980
3.47,326,8.8072
3.47,326,8.8163
3.48,325,8.8249
3.48,325,8.8338
3.48,325,8.8428
3.49,325,8.8522
3.49,325,8.8609
3.49,325,8.8698
3.50,325,8.8787
3.50,325,8.8880
3.51,325,8.8971
3.51,324,8.9058
3.51,324,8.9147
3.52,324,8.9237
3.52,324,8.9330
3.52,323,8.9417
3.53,323,8.9505
3.53,322,8.9595
3.53,322,8.9688
3.54,320,8.9778
3.54,318,8.9865
