Time (min),Force (N),Position (mm)
0.00521,-0.23971631205673757,3.4724288870776444e-06
0.0156,9.71631205673759,0.0010329869526648921
0.026,6.695035460992908,0.0020917179073580454
0.0364,8.184397163120568,0.0031201554190623836
0.0468,17.588652482269502,0.0041441716949544615
0.0572,28.085106382978722,0.005189464408107315
0.0676,38.58156028368794,0.00620534771075098
0.078,49.361702127659576,0.007230799296462771
0.0884,60.28368794326241,0.008269625719394966
0.0988,70.35460992907801,0.009275366841148618
0.109,80.0,0.010294495834664632
0.12,89.36170212765957,0.01133077213509737
0.13,98.01418439716312,0.012330317181952865
0.14,106.52482269503545,0.01334240747560159
0.151,115.177304964539,0.01436925452943893
0.161,123.26241134751773,0.015362668289638436
0.172,131.34751773049646,0.016369699384766356
0.182,139.57446808510636,0.017392538914543714
0.192,147.51773049645388,0.018374939034900253
0.203,154.60992907801418,0.019374685350538802
0.213,161.70212765957444,0.02039053249873692
0.224,168.79432624113474,0.021371474673748753
0.234,175.886524822695,0.0223700214000893
0.244,181.56028368794324,0.023373667231879544
0.255,187.23404255319147,0.02435276945532765
0.265,192.9078014184397,0.0253411306042885
0.276,197.16312056737587,0.026345033420515064
0.286,200.0,0.027317444908447217
0.296,202.8368794326241,0.02830538754930203
0.307,205.67375886524823,0.029300599617070554
0.317,208.51063829787233,0.030267119412296064
0.327,211.34751773049643,0.031246495896527973
0.338,212.76595744680853,0.032229795891929786
0.348,215.60283687943263,0.033191230207064555
0.359,217.02127659574467,0.03416911926870632
0.369,218.43971631205673,0.03514136698436093
0.379,219.8581560283688,0.03610068573466964
0.39,222.6950354609929,0.03707343111208162
0.4,224.11347517730496,0.03803547149517313
0.411,225.531914893617,0.03898904674523751
0.421,226.95035460992906,0.03995524830763765
0.431,228.36879432624113,0.040912266127966467
0.442,229.7872340425532,0.04186376358931414
0.452,231.20567375886523,0.04282780321444049
0.463,232.6241134751773,0.04377550559428976
0.473,234.04255319148933,0.04471774041897025
0.483,235.46099290780143,0.04567963390166743
0.494,236.87943262411346,0.04662170024134734
0.504,238.29787234042553,0.047558337051855575
0.515,239.71631205673756,0.04851452139156624
0.525,241.13475177304963,0.04945100181876698
0.535,242.5531914893617,0.05037854005047201
0.546,243.97163120567376,0.05133261623042907
0.556,245.3900709219858,0.05225648775209418
0.567,245.3900709219858,0.053182090976527124
0.577,246.80851063829786,0.05413054488038848
0.587,248.2269503546099,0.05504897748114748
0.598,249.645390070922,0.05597264550657846
0.608,251.06382978723403,0.056915519680390894
0.619,251.06382978723403,0.05782855447160503
0.629,252.4822695035461,0.058746799183259035
0.639,253.90070921985813,0.059684142720696574
0.65,255.3191489361702,0.060588352774962835
0.66,255.3191489361702,0.061501228546620115
0.671,256.73758865248226,0.06244001830825791
0.681,258.1560283687943,0.06333893854913414
0.691,258.1560283687943,0.06424303155785115
0.702,259.5744680851064,0.0651729062081352
0.712,260.9929078014184,0.0660665960701259
0.723,260.9929078014184,0.06696886100407375
0.733,262.41134751773046,0.06789332883182081
0.743,263.82978723404256,0.06877841325707582
0.754,263.82978723404256,0.06967885607126115
0.764,265.2482269503546,0.07059796409727254
0.775,266.66666666666663,0.07148131630317964
0.785,266.66666666666663,0.07237654208269727
0.795,268.0851063829787,0.07328694903443068
0.806,268.0851063829787,0.07416182484891343
0.816,269.5035460992908,0.07505189177378828
0.827,270.92198581560285,0.07595033414945594
0.837,270.92198581560285,0.07682354608794892
0.847,270.92198581560285,0.0777118539444158
0.858,272.3404255319149,0.07860848115500417
0.868,273.7588652482269,0.0794766788678288
0.878,273.7588652482269,0.08035989065696338
0.889,275.177304964539,0.08124805579066924
0.899,275.177304964539,0.08211460558030956
0.91,276.59574468085106,0.08299607565643402
0.92,276.59574468085106,0.08387585435790158
0.93,278.0141843971631,0.08473745657908012
0.941,278.0141843971631,0.08561389866874024
0.951,279.43262411347513,0.08648537837128256
0.962,279.43262411347513,0.08734208143495696
0.972,280.8510638297872,0.08821354469548486
0.982,280.8510638297872,0.08908007846822003
0.993,280.8510638297872,0.08993192404156217
1.0,282.2695035460993,0.09080495976632973
1.01,282.2695035460993,0.09165683224260632
1.02,283.68794326241135,0.09250710988524145
1.03,283.68794326241135,0.09337521416333525
1.04,285.1063829787234,0.09422227927908652
1.06,285.1063829787234,0.09506453899951191
1.07,285.1063829787234,0.09593097753352886
1.08,286.5248226950355,0.09677327586820003
1.09,286.5248226950355,0.09761400616748853
1.1,287.9432624113475,0.09847557188237592
1.11,287.9432624113475,0.09931313761715135
1.12,287.9432624113475,0.10014914850727498
1.13,289.36170212765956,0.10100588239458057
1.14,289.36170212765956,0.10183557933373175
1.15,289.36170212765956,0.10266691631839074
1.16,290.7801418439716,0.10352519305973204
1.17,290.7801418439716,0.10435024841938977
1.18,290.7801418439716,0.10517693893008755
1.19,292.1985815602837,0.1060272767267928
1.2,292.1985815602837,0.10684459447579867
1.21,292.1985815602837,0.1076666889164474
1.22,293.6170212765957,0.10851230358314878
1.23,293.6170212765957,0.10932508582389185
1.24,293.6170212765957,0.11014262241669849
1.25,295.03546099290776,0.110986664799972
1.26,295.03546099290776,0.11179183757680028
1.27,295.03546099290776,0.11260795438665139
1.28,296.45390070921985,0.11344423424618327
1.29,296.45390070921985,0.11424805239187898
1.3,296.45390070921985,0.11505966379235259
1.32,297.87234042553195,0.1158882538444938
1.33,297.87234042553195,0.11668764823302755
1.34,297.87234042553195,0.11749786323301532
1.35,297.87234042553195,0.11832189581619443
1.36,299.290780141844,0.1191168973493742
1.37,299.290780141844,0.11991961470496519
1.38,299.290780141844,0.12074217668235947
1.39,299.290780141844,0.12152978325303747
1.4,300.709219858156,0.12233720910143225
1.41,300.709219858156,0.12314617912673646
1.42,300.709219858156,0.1239355299327776
1.43,300.709219858156,0.12473552539989938
1.44,302.12765957446805,0.12554008228185842
1.45,302.12765957446805,0.1263221257201823
1.46,302.12765957446805,0.12712077005818048
1.47,302.12765957446805,0.12791795561995076
1.48,302.12765957446805,0.12869575359241486
1.49,303.54609929078015,0.1294930496531681
1.5,303.54609929078015,0.13028293197374413
1.51,303.54609929078015,0.13105949163559236
1.52,303.54609929078015,0.13185246960629168
1.53,304.9645390070922,0.1326380778713436
1.54,304.9645390070922,0.1334074827193264
1.55,304.9645390070922,0.13420503660881064
1.56,304.9645390070922,0.13497755709488685
1.58,304.9645390070922,0.13574575953997176
1.59,304.9645390070922,0.13653608191349043
1.6,306.3829787234042,0.1373044500146047
1.61,306.3829787234042,0.13806852694553884
1.62,306.3829787234042,0.13885752838549348
1.63,306.3829787234042,0.13962468667434455
1.64,306.3829787234042,0.14038757013963626
1.65,307.80141843971626,0.14116942968916418
1.66,307.80141843971626,0.1419266786481629
1.67,307.80141843971626,0.14268548708290302
1.68,307.80141843971626,0.14346606237185713
1.69,307.80141843971626,0.14421638522391883
1.7,307.80141843971626,0.14497402942770488
1.71,309.21985815602835,0.14575044478151056
1.72,309.21985815602835,0.1464967724809054
1.73,309.21985815602835,0.14725038608742363
1.74,309.21985815602835,0.1480226746721229
1.75,309.21985815602835,0.14876503904286337
1.76,309.21985815602835,0.1495118063833492
1.77,310.63829787234044,0.15028284876038311
1.78,310.63829787234044,0.15102128128937808
1.79,310.63829787234044,0.1517640969126217
1.8,310.63829787234044,0.15252823515673225
1.81,310.63829787234044,0.15326277189765816
1.82,310.63829787234044,0.154004489771448
1.83,310.63829787234044,0.1547645986130153
1.85,310.63829787234044,0.15549245761669334
1.86,310.63829787234044,0.15623027605222073
1.87,312.0567375886525,0.1569863923000332
1.88,312.0567375886525,0.15771043145785732
1.89,312.0567375886525,0.158447169367477
1.9,312.0567375886525,0.15919375287578907
1.91,312.0567375886525,0.15991678545796112
1.92,312.0567375886525,0.16064967037324657
1.93,312.0567375886525,0.16139512156469144
1.94,312.0567375886525,0.16211161069198365
1.95,312.0567375886525,0.162843431946422
1.96,313.4751773049645,0.16357948464641475
1.97,313.4751773049645,0.16429774689408297
1.98,313.4751773049645,0.16502575599685737
1.99,313.4751773049645,0.165757977849889
2.0,313.4751773049645,0.16647250507828268
2.01,313.4751773049645,0.167199462286267
2.02,313.4751773049645,0.16792242678372535
2.03,313.4751773049645,0.1686332527060333
2.04,313.4751773049645,0.16935644746179532
2.05,314.8936170212766,0.17007567341497523
2.06,314.8936170212766,0.17078282671646322
2.07,314.8936170212766,0.17150769290986723
2.08,314.8936170212766,0.17221780448697058
2.09,314.8936170212766,0.17292400669475685
2.11,314.8936170212766,0.1736451358930814
2.12,314.8936170212766,0.17435158969824824
2.13,314.8936170212766,0.17505415736978686
2.14,314.8936170212766,0.17577157839742738
2.15,314.8936170212766,0.17647440261971922
2.16,314.8936170212766,0.1771706982062969
2.17,316.31205673758865,0.17788710512687728
2.18,316.31205673758865,0.17858367127824024
2.19,316.31205673758865,0.17927640613539356
2.2,316.31205673758865,0.1799944472064929
2.21,316.31205673758865,0.18068480557392383
2.22,316.31205673758865,0.1813740025009991
2.23,316.31205673758865,0.18208574575103206
2.24,316.31205673758865,0.18277258877695804
2.25,316.31205673758865,0.18346352910920372
2.26,316.31205673758865,0.18417164514678486
2.27,316.31205673758865,0.18484975882464322
2.28,316.31205673758865,0.18553980433716086
2.29,316.31205673758865,0.18624432533567423
2.3,316.31205673758865,0.1869216019565099
2.31,316.31205673758865,0.18760554731078247
2.32,317.7304964539007,0.18830390668690583
2.33,317.7304964539007,0.18897776074843942
2.34,317.7304964539007,0.18965825272453485
2.35,317.7304964539007,0.1903530889304692
2.37,317.7304964539007,0.19102354631071702
2.38,317.7304964539007,0.19170061099796334
2.39,317.7304964539007,0.19239451845728275
2.4,317.7304964539007,0.19306160053372307
2.41,317.7304964539007,0.19373781877511634
2.42,317.7304964539007,0.19442567942582217
2.43,317.7304964539007,0.19508941162303564
2.44,317.7304964539007,0.19576478336309638
2.45,317.7304964539007,0.19644156485096206
2.46,317.7304964539007,0.19710451865783693
2.47,317.7304964539007,0.19777904813641548
2.48,317.7304964539007,0.19845244519339705
2.49,317.7304964539007,0.199109561181408
2.5,317.7304964539007,0.19978324837593806
2.51,317.7304964539007,0.2004507694874386
2.52,317.7304964539007,0.20110712713090523
2.53,317.7304964539007,0.20177996781979082
2.54,319.1489361702127,0.20243915458550388
2.55,319.1489361702127,0.20309225305272144
2.56,319.1489361702127,0.2037642515227225
2.57,319.1489361702127,0.2044176744564826
2.58,319.1489361702127,0.20506753796271954
2.59,319.1489361702127,0.2057386942844456
2.6,319.1489361702127,0.2063888819456595
2.61,319.1489361702127,0.2070355304276701
2.63,319.1489361702127,0.2077058405180481
2.64,319.1489361702127,0.20835281284089135
2.65,319.1489361702127,0.20899872941528191
2.66,319.1489361702127,0.20966326676665153
2.67,319.1489361702127,0.2103045923586088
2.68,319.1489361702127,0.21094732918096953
2.69,319.1489361702127,0.21160859781174826
2.7,319.1489361702127,0.21224677145231924
2.71,319.1489361702127,0.2128839127726629
2.72,319.1489361702127,0.21353950570648306
2.73,319.1489361702127,0.21417455843725927
2.74,319.1489361702127,0.2148134409100745
2.75,319.1489361702127,0.21546824808500126
2.76,319.1489361702127,0.216097771742485
2.77,319.1489361702127,0.21673111674406845
2.78,319.1489361702127,0.2173875533809474
2.79,319.1489361702127,0.21801400185952577
2.8,319.1489361702127,0.2186418518803353
2.81,319.1489361702127,0.2192926914730779
2.82,319.1489361702127,0.2199160949122559
2.83,319.1489361702127,0.22054567939877678
2.84,319.1489361702127,0.2211909645887183
2.85,319.1489361702127,0.22181134133376634
2.86,319.1489361702127,0.22243549122790904
2.87,319.1489361702127,0.223080028874506
2.88,319.1489361702127,0.22369740091444779
2.9,319.1489361702127,0.22431853023630802
2.91,319.1489361702127,0.2249575862616104
2.92,319.1489361702127,0.22557197912093271
2.93,319.1489361702127,0.2261924709136717
2.94,319.1489361702127,0.22682609066225087
2.95,319.1489361702127,0.22743517603224092
2.96,319.1489361702127,0.2280550329900103
2.97,319.1489361702127,0.22868794961571046
2.98,319.1489361702127,0.22929410622390523
2.99,319.1489361702127,0.22991098498629606
3.0,320.5673758865248,0.23054086312715466
3.01,319.1489361702127,0.23114643936045912
3.02,319.1489361702127,0.23176035762462727
3.03,319.1489361702127,0.23238489551066047
3.04,319.1489361702127,0.23298525761428215
3.05,319.1489361702127,0.23359855651003716
3.06,319.1489361702127,0.23421780172270845
3.07,319.1489361702127,0.2348176064251221
3.08,319.1489361702127,0.23542797972379087
3.09,319.1489361702127,0.2360419755834203
3.1,319.1489361702127,0.23664122137404578
3.11,319.1489361702127,0.23724639944264939
3.12,319.1489361702127,0.23785747934863818
3.13,319.1489361702127,0.23845388148663396
3.14,319.1489361702127,0.2390607493154543
3.16,319.1489361702127,0.2396643746838171
3.17,319.1489361702127,0.24025795336260636
3.18,319.1489361702127,0.24086195044681552
3.19,319.1489361702127,0.2414649879351124
3.2,319.1489361702127,0.24205123614281665
3.21,319.1489361702127,0.242659160842497
3.22,319.1489361702127,0.24325483840213558
3.23,319.1489361702127,0.24384282647979064
3.24,319.1489361702127,0.24444563429383928
3.25,319.1489361702127,0.24503626203780765
3.26,319.1489361702127,0.24562148612567233
3.27,319.1489361702127,0.2462236994391192
3.28,319.1489361702127,0.24681155165716287
3.29,319.1489361702127,0.2473917977558053
3.3,319.1489361702127,0.2479956419274997
3.31,319.1489361702127,0.24857628873604026
3.32,319.1489361702127,0.2491582591113463
3.33,319.1489361702127,0.24975705715728816
3.34,319.1489361702127,0.2503349881057087
3.35,319.1489361702127,0.250914238527781
3.36,319.1489361702127,0.25150803450135406
3.37,319.1489361702127,0.25208327198845737
3.38,319.1489361702127,0.25265982487524713
3.39,319.1489361702127,0.25325305313663116
3.4,319.1489361702127,0.25382342054394513
3.42,317.7304964539007,0.25439729469506606
3.43,319.1489361702127,0.254989954096822
3.44,319.1489361702127,0.2555598541600722
3.45,317.7304964539007,0.2561288829925876
3.46,319.1489361702127,0.2567187938945595
3.47,317.7304964539007,0.25728388130577684
3.48,317.7304964539007,0.25785244704163623
3.49,317.7304964539007,0.25843962851912733
3.5,317.7304964539007,0.25899994165353873
3.51,317.7304964539007,0.2595658840608439
3.52,317.7304964539007,0.260150358419285
3.53,317.7304964539007,0.26070809029839453
3.54,317.7304964539007,0.26127357598848283
3.55,317.7304964539007,0.26185321340869794
3.56,317.7304964539007,0.2624083818285303
3.57,317.7304964539007,0.2629712703879847
3.58,317.7304964539007,0.2635482477377304
3.59,317.7304964539007,0.2641008703310967
3.6,317.7304964539007,0.26466330843610675
3.61,317.7304964539007,0.2652355151595799
3.62,317.7304964539007,0.265787731717681
3.63,317.7304964539007,0.2663475952664978
3.64,317.7304964539007,0.26691718473109716
3.65,317.7304964539007,0.26746476476678566
3.66,317.7304964539007,0.2680241840198729
3.68,317.7304964539007,0.2685869618427001
3.69,317.7304964539007,0.26913415416665476
3.7,316.31205673758865,0.26969312735229256
3.71,317.7304964539007,0.2702533427568335
3.72,316.31205673758865,0.2708001389498948
3.73,316.31205673758865,0.27135656768781935
3.74,316.31205673758865,0.2719100608270414
3.75,316.31205673758865,0.27245437802010203
3.76,316.31205673758865,0.2730124475152195
3.77,316.31205673758865,0.2735613511758868
3.78,316.31205673758865,0.2741032030910629
3.79,316.31205673758865,0.2746587469301502
3.8,316.31205673758865,0.27520310007618926
3.81,316.31205673758865,0.275742506501209
3.82,316.31205673758865,0.2762976069384255
3.83,316.31205673758865,0.2768374450154455
3.84,316.31205673758865,0.2773764783198719
3.85,316.31205673758865,0.27792907785289084
3.86,316.31205673758865,0.278466485620462
3.87,316.31205673758865,0.27900309404184054
3.88,316.31205673758865,0.27955525300658046
3.89,316.31205673758865,0.28008820336657964
3.9,314.8936170212766,0.2806203658073762
3.91,314.8936170212766,0.2811700513935113
3.92,316.31205673758865,0.2817006162103769
3.93,314.8936170212766,0.28223242670434473
3.95,314.8936170212766,0.28278977834251023
3.96,314.8936170212766,0.28331593352332046
3.97,314.8936170212766,0.28384131728085266
3.98,314.8936170212766,0.2843860934242407
3.99,314.8936170212766,0.28490990990990994
4.0,314.8936170212766,0.28543296010802904
4.01,314.8936170212766,0.2859753183594299
4.02,314.8936170212766,0.2864968117081941
4.03,314.8936170212766,0.2870175438596491
4.04,314.8936170212766,0.2875575002804892
4.05,314.8936170212766,0.28807668591288754
4.06,314.8936170212766,0.2886150399103767
4.07,314.8936170212766,0.28913268590299745
4.08,313.4751773049645,0.28966944459980987
4.09,313.4751773049645,0.2901855577911916
4.1,313.4751773049645,0.29072072826785067
4.11,313.4751773049645,0.2912353154560929
4.12,313.4751773049645,0.29174915651228284
4.13,313.4751773049645,0.2922819726943438
4.14,313.4751773049645,0.2927942978059918
4.15,313.4751773049645,0.2933058816982917
4.16,313.4751773049645,0.29383635908699157
4.17,313.4751773049645,0.2943464370051396
4.18,313.4751773049645,0.2948753539503637
4.19,313.4751773049645,0.29538393253439854
4.21,313.4751773049645,0.2958917780118645
4.22,312.0567375886525,0.2964183817622781
4.23,312.0567375886525,0.2969441984056687
4.24,312.0567375886525,0.2974497980859656
4.25,312.0567375886525,0.2979546710889994
4.26,312.0567375886525,0.2984781948242053
4.27,312.0567375886525,0.29898159136698593
4.28,312.0567375886525,0.29950358521787096
4.29,312.0567375886525,0.30000551176762386
4.3,312.0567375886525,0.30050671954174935
4.31,312.0567375886525,0.30102644541676987
4.32,312.0567375886525,0.30152619276777126
4.33,312.0567375886525,0.3020252260174219
4.34,312.0567375886525,0.3025426986654951
4.35,312.0567375886525,0.3030594045822472
4.36,310.63829787234044,0.30355625017136906
4.37,310.63829787234044,0.3040714559701902
4.38,310.63829787234044,0.3045668601467528
4.39,310.63829787234044,0.30506155950752395
4.4,310.63829787234044,0.3055745413784619
4.41,310.63829787234044,0.3060678086495643
4.42,310.63829787234044,0.30656037565863115
4.43,310.63829787234044,0.30707114797031865
4.44,310.63829787234044,0.307562292132381
4.45,309.21985815602835,0.30807159007327906
4.47,309.21985815602835,0.30858013937282236
4.48,309.21985815602835,0.3090691474892552
4.49,309.21985815602835,0.30955746439056214
4.5,309.21985815602835,0.310063832676898
4.51,309.21985815602835,0.3105507450937814
4.52,309.21985815602835,0.31103697073263353
4.53,309.21985815602835,0.3115411720062883
4.54,309.21985815602835,0.3120260021668472
4.55,307.80141843971626,0.31251014994857357
4.56,307.80141843971626,0.3130121980904985
4.57,307.80141843971626,0.313494959323225
4.58,307.80141843971626,0.3139955706800627
4.59,307.80141843971626,0.3144769513116701
4.6,307.80141843971626,0.3149576568315443
4.61,306.3829787234042,0.3154561379867943
4.62,306.3829787234042,0.3159538942152321
4.63,306.3829787234042,0.31643253135260235
4.64,306.3829787234042,0.3169104991394148
4.65,306.3829787234042,0.3174061433447099
4.66,304.9645390070922,0.31788275102720415
4.67,304.9645390070922,0.3183586936102837
4.68,304.9645390070922,0.3188522392062215
4.69,304.9645390070922,0.3193268303140744
4.7,303.54609929078015,0.3198189754438583
4.71,303.54609929078015,0.3202922208247478
4.73,303.54609929078015,0.3207648081294291
4.74,302.12765957446805,0.3212548768104324
4.75,302.12765957446805,0.3217261268959624
4.76,302.12765957446805,0.3221967230613225
4.77,300.709219858156,0.3226847284072425
4.78,300.709219858156,0.3231720315497762
4.79,299.290780141844,0.32364062416786493
4.8,299.290780141844,0.3241265533115138
4.81,297.87234042553195,0.3245938256175712
