Time (min),Force (N),Position (mm)
0.00667,1.615978698352764,0.0001928575792118437
0.0133,7.460668269842966,0.0008807247675487392
0.02,12.871751487392308,0.0015436617693962687
0.0267,18.523562755092822,0.002232656158775064
0.0333,20.745119264868794,0.0028811968069863687
0.04,16.582726973817458,0.0035557403085632066
0.0467,15.241443255163754,0.004205590823842552
0.0533,18.572258290682278,0.004858049649844532
0.06,23.63080546836549,0.005524714146963603
0.0667,28.695498416856385,0.006170716182717999
0.0733,33.890835709517575,0.006842455992599711
0.08,38.84509915867407,0.007478191120756993
0.0867,44.05340407902294,0.008135754105565378
0.0933,49.14462280096672,0.00878434034956364
0.1,54.365711056240286,0.009427825625545873
0.107,59.718203779845005,0.010089150074382052
0.113,64.82849493136258,0.01072246784839771
0.12,70.19461440021114,0.011381195287242494
0.127,75.19432084691431,0.01201582526364414
0.133,80.32481448004151,0.012656807902228385
0.14,84.96624261554244,0.013304102517262533
0.147,89.48806383269407,0.013935022976038455
0.153,94.26631981286036,0.014591097327996481
0.16,98.67450203113744,0.015212022605466806
0.167,103.33942118216896,0.01585803575829597
0.173,107.88413863192477,0.016487792918896373
0.18,112.4348247341521,0.017120073523208337
0.187,116.8673615789666,0.017758589864693138
0.193,121.30310500019864,0.018377240001606704
0.2,125.99738395216474,0.019024443488138254
0.207,129.819375539362,0.01963698212659553
0.213,134.89787203371418,0.020270577444971714
0.22,138.73171134571265,0.020895548383368247
0.227,143.8207350638952,0.021519316175034796
0.233,147.66665669369578,0.02215660525217589
0.24,152.76495304365366,0.022763256671323964
0.247,156.62144075541124,0.02340176690732369
0.253,160.47730563704323,0.024006086630651558
0.26,165.59570342674408,0.02463118941538838
0.267,169.4643194406239,0.02525143732562122
0.273,174.5922637816073,0.025863216932819774
0.28,178.4732738628007,0.026495622027383946
0.287,182.35228936296028,0.027090545406738862
0.293,187.50010684067658,0.027716925159651563
0.3,191.3900549160945,0.028316813014465435
0.307,195.28790384270212,0.028933598633833567
0.313,199.19025362885336,0.029549199238407254
0.32,204.3556337603799,0.030149259448145217
0.327,208.2699208334707,0.030773276713242162
0.333,212.1811691375244,0.03136031761179016
0.34,216.10364862337852,0.03197840670376702
0.347,220.02514739197952,0.032570362810407566
0.353,223.95415427096836,0.033175445778457505
0.36,227.8891928954897,0.033786479735314776
0.367,231.82375936102787,0.034375088089857
0.373,235.76929268679618,0.03499089569276903
0.38,239.71085364839885,0.035570221368611876
0.387,243.66437148467622,0.03618019553585673
0.393,247.6171111607449,0.03676790381725957
0.4,251.5767890353565,0.03736505231742619
0.407,255.54350699057088,0.037971584729741985
0.413,258.2343884537248,0.03854549171612345
0.42,262.209973622429,0.039153255918816195
0.427,266.18071519481515,0.03972502245197562
0.433,270.16314786809005,0.04032356908117745
0.44,272.87198627060786,0.040910571306389545
0.447,276.86042079238274,0.0414999454700824
0.453,280.85606671679113,0.04209858954103947
0.46,283.57086507040503,0.042668490912327425
0.467,287.5753596881468,0.04326836021765786
0.473,290.29636419176035,0.043836145035012174
0.48,294.30568946493463,0.04442349420204998
0.487,297.0379402027111,0.04500631964585761
0.493,299.77090238640767,0.04558122472854287
0.5,303.7946184841956,0.04617555073893939
0.507,306.5296303081381,0.04673468775982645
0.513,309.277812946379,0.047326826386568634
0.52,312.01926380276,0.04788730139834584
0.527,314.77083891254074,0.0484704838897531
0.533,317.523025033191,0.04904581474278022
0.54,320.27577293573836,0.049613334502953084
0.547,323.03773941926505,0.050200033450763334
0.553,324.5027176909426,0.05074863948612589
0.56,327.2693891549646,0.05133320064886685
0.567,328.7396959412111,0.05188651057560244
0.573,331.507744028326,0.052458900903811854
0.58,332.9889621627319,0.05303357372886699
0.587,334.46473092731605,0.0535871900032087
0.593,337.24387796022364,0.05416975065462189
0.6,338.7194102216815,0.05471137830459949
0.607,340.2073938665669,0.055285197307422054
0.613,341.68982868565666,0.05583810461331653
0.62,343.17685887966434,0.05639992772530892
0.627,345.9631138814976,0.05696731957347187
0.633,347.44872258628226,0.057513928580889856
0.64,348.9446811491622,0.05808583917900849
0.647,350.4292297120635,0.05862063059066388
0.653,351.92760651826666,0.0591904861442866
0.66,352.11978913565684,0.05973642274841237
0.667,354.91529273787285,0.06029116968995571
0.673,356.4161351360634,0.060854676609556
0.68,357.9077220580253,0.061387911771821305
0.687,359.4144507059758,0.061959131564897976
0.693,360.9083815279741,0.062490445031842826
0.7,362.4128321461061,0.06304668452086003
0.707,362.6106009342171,0.06359223597200647
0.713,365.41825437014563,0.06413681263005938
0.72,366.92862205985494,0.06469648538287645
0.727,367.1207076892925,0.06521984430723549
0.733,369.94228817296414,0.0657839337961712
0.74,370.13526013290715,0.06630542499600026
0.747,371.6484399331584,0.06685793120165541
0.753,373.1580502034488,0.06739669259305398
0.76,374.6676301461113,0.06793131840458752
0.767,376.18672089518003,0.06848721836957573
0.773,376.3800160600137,0.06900091412462948
0.78,377.8995256593562,0.06955169089508342
0.787,379.4106328116657,0.07007621020750308
0.793,380.92887731319064,0.07061557687968001
0.8,382.44828134430577,0.07115398065922433
0.807,383.9628140436364,0.07167572308013741
0.813,385.48935098561606,0.07222477558021295
0.82,385.68498796054246,0.07273214977368171
0.827,387.2119070337361,0.07327615510549951
0.833,388.7302943588187,0.07379423199448598
0.84,388.9386555432702,0.07433009288867144
0.847,390.4658980222077,0.07486499801171512
0.853,391.9857789282474,0.07537723796329047
0.86,393.5201736180425,0.07592266305187192
0.867,393.71744027254687,0.07642382472187473
0.873,395.250971015518,0.07696117528599619
0.88,396.7770990100209,0.07747600077839938
0.887,398.3067902986975,0.07799608937287013
0.893,398.51975408646024,0.07853061923845789
0.9,400.0448853755401,0.07903355275437128
0.907,401.58584954757464,0.07957234293493994
0.913,401.7859390867205,0.08007046733042894
0.92,403.32477294017764,0.0805982400538244
0.927,404.859813146783,0.08111290607827139
0.933,406.3947304710601,0.08162364374511268
0.94,406.60815209477005,0.08214866434021512
0.947,408.13843528036296,0.08264248730262301
0.953,409.68588787198405,0.08317477183576494
0.96,409.8887866925137,0.08366990383769644
0.967,411.43282405931745,0.08418829925666549
0.973,411.64331557908804,0.08469977447559691
0.98,413.183929926486,0.08520436313201106
0.987,414.73433402462916,0.08572905996328656
0.993,414.93548253524887,0.08621394807310075
1.0,416.4874059528727,0.08673685140988013
1.01,418.02674727282556,0.08722604450625007
1.01,418.2421527486119,0.08774120292131173
1.02,419.79172254794184,0.08824951955322705
1.03,419.99856836399,0.08874213258405032
1.03,421.55463196761735,0.08926055930413322
1.04,423.0955567700119,0.08973965835467632
1.05,423.3142124082028,0.09025632451571855
1.05,424.8603772438833,0.09074263281708826
1.06,425.074195389772,0.09124577307584208
1.07,426.6306070973486,0.09175098315609155
1.07,428.1805827497272,0.09223774200307457
1.08,428.4012365753667,0.09275293815957014
1.09,429.9476810340981,0.09322634935533643
1.09,430.16598781154653,0.09373397245224449
1.1,431.71892502282407,0.09421743271492254
1.11,431.9336218561509,0.0947146160753499
1.11,433.4955712750883,0.0952138502967664
1.12,433.70287993814964,0.09569196154505179
1.13,435.2713315482448,0.09620107997790987
1.13,435.4750128251999,0.09666891146979313
1.14,437.0436770006036,0.0971734375565233
1.15,437.2525322518304,0.09765120528098399
1.15,438.81637061436203,0.09813966894326606
1.16,440.38505622054964,0.09863590649638966
1.17,440.59318602297213,0.0991084035373258
1.17,442.16585437472577,0.09960869281674935
1.18,442.3715996743022,0.10007389709350481
1.19,443.94445825940363,0.10056966809068649
1.19,444.1566552605552,0.10104753486049288
1.2,445.7246485563402,0.1015274465565801
1.21,445.9433043097099,0.10201788867026096
1.21,446.14907788562067,0.10247921663060927
1.22,447.7277492321933,0.10297650649954164
1.23,447.9336575108673,0.10343629695328085
1.23,449.5099769504259,0.10392348982895167
1.24,449.72486637866734,0.10440142823164186
1.25,451.29630256343944,0.10487296090333585
1.25,452.8776448799157,0.10536331529415359
1.26,453.08039319457316,0.10581090405549011
1.27,453.3031544071689,0.10630244258279513
1.27,454.8723741423584,0.10675970611522431
1.28,455.0902111547313,0.10723848847409032
1.29,456.66971565907204,0.10771369081027692
1.29,456.88134981387975,0.10817701282169405
1.3,458.4673439432961,0.10866172139591086
1.31,458.6715003998857,0.10910692434685106
1.31,458.8944158350971,0.10959280865369547
1.32,460.4695295558517,0.11004757085760919
1.33,460.6875121634054,0.1105208508777364
1.33,462.27290552372847,0.11099334167611523
1.34,462.48340874956364,0.11144860372995996
1.35,464.075281608573,0.11193049240946185
1.35,464.27956626713814,0.11237059279204685
1.36,464.5013561655356,0.11284818637145057
1.37,466.08232152401706,0.11330047242247387
1.37,466.29790371142536,0.11376290649264227
1.38,467.8891387946376,0.11423272353336479
1.39,468.0972334708967,0.11467737675878323
1.39,468.32029213677015,0.11515378533506984
1.4,469.8993424492939,0.11559158558126374
1.41,470.1199985387084,0.11606105697157648
1.41,470.3327943865006,0.1165135961166024
1.42,471.92247538058893,0.11696809373242995
1.43,472.14173102558385,0.11743258681976274
1.43,472.348073845973,0.11786952710775245
1.44,473.94837034409267,0.11834055094226878
1.45,474.1548321651692,0.11877607699849059
1.45,475.7527005286141,0.11923758136737775
1.46,475.96688439788744,0.1196876800651068
1.47,476.18081963356167,0.12013705412412833
1.47,477.7816969506586,0.1205989680519153
1.48,477.9856205598611,0.12102569034835892
1.49,479.5916586040872,0.12149406653129631
1.49,479.7994978521498,0.12192733975862455
1.5,480.01722479015086,0.12238102416857374
1.51,480.2334317689499,0.12283133780486406
1.51,481.82890297086135,0.12327041404663192
1.52,482.0502893951955,0.12372977955629436
1.53,482.2537310917475,0.12415172470066418
1.53,483.8610309607271,0.1246096330492753
1.54,484.0696440111174,0.12504068262547863
1.55,484.2855952327364,0.12548669916248337
1.55,485.89081483991987,0.12593459923166697
1.56,486.10056477745894,0.12636618729961363
1.57,486.32142997848285,0.12682044523703778
1.57,487.91572688556664,0.12724029254410754
1.58,488.1354535288526,0.12769052845674583
1.59,488.3460961746364,0.12812196036473214
1.59,489.9521869768851,0.12856044902524377
1.6,490.1705142686941,0.12900595915401164
1.61,490.3772468358547,0.12942762667174865
1.61,491.99385905151826,0.12988199375637607
1.62,492.19691827189945,0.1302946357520972
1.63,492.4173836251937,0.13074245650089963
1.63,492.627526989696,0.13116912408818587
1.64,494.2373521971178,0.13160277457789726
1.65,494.45516050866837,0.132043373272183
1.65,494.66014572312605,0.13245785521599848
1.66,494.87997064258957,0.13290215235856806
1.67,495.0844882452682,0.13331533407181453
1.67,496.7017192160633,0.1337557097863164
1.68,496.9126220219275,0.13418022622147333
1.69,497.1232860361071,0.13460408217199935
1.69,498.7434389472222,0.13504489815034282
1.7,498.94543142052,0.13544981892686347
1.71,499.1672451885009,0.13589428532195244
1.71,499.3725319247827,0.13630545920581613
1.72,500.99092549822115,0.13673602224105144
1.73,501.2038347360799,0.13716090820036725
1.73,501.41275018337836,0.13757764866419836
1.74,503.0365524437161,0.13801366581083702
1.75,503.2380671623797,0.1384141821657785
1.75,503.45810780569275,0.1388513361995151
1.76,503.662912227745,0.13925804884040235
1.77,503.8787122474203,0.1396864182848661
1.77,505.49984960712226,0.14010916833695747
1.78,505.7070236447837,0.14051892433454857
1.79,505.9239352883349,0.14094775985991473
1.79,506.1256609183768,0.14134640758127048
1.8,507.7537564260344,0.14177638304111229
1.81,507.960570096505,0.14218361107349972
1.81,508.17337375854726,0.1426024607073304
1.82,508.38717728039285,0.14302310171052413
1.83,508.5920493396255,0.1434260048508075
1.83,510.2224506174798,0.1438526658468565
1.84,510.4237024092445,0.14424702738689893
1.85,510.6408604930238,0.14467238361792156
1.85,510.8478558871065,0.14507766542592718
1.86,512.472767190233,0.1454871764630382
1.87,512.6885492845718,0.1459081484487301
1.87,512.8892259652275,0.1462994921148269
1.88,513.1094740579679,0.14672882617951646
1.89,513.3096987762041,0.14711896838666763
1.89,514.943091707762,0.14753737463268027
1.9,515.150838714662,0.14794073010072248
1.91,515.3583548526179,0.14834347496133377
1.91,515.5730393073567,0.1487599613716966
1.92,515.7739278447732,0.14914952675823542
1.93,517.4108233266254,0.14956713645734088
1.93,517.6130484364261,0.1499579006085666
1.94,517.8249031499082,0.15036710855021848
1.95,518.0340583797661,0.15077093810707515
1.95,518.240522796064,0.15116941245505267
1.96,518.4553470067251,0.15158385263947588
1.97,518.652766745497,0.1519645646183692
1.97,520.2938028983706,0.15238011988908487
1.98,520.4950051035368,0.1527667539614838
1.99,520.7070139065464,0.15317399252243336
1.99,520.9163350416334,0.15357590582077868
2.0,521.1193109500808,0.15396548157434406
2.01,522.7625860078863,0.15437789702890586
2.01,522.9583255562621,0.15475225991769825
2.02,523.1734020427143,0.15516344425291778
2.03,523.3748111088988,0.15554834590606684
2.03,523.583314620793,0.15594664935207198
2.04,523.7928021708537,0.1563466728956601
2.05,523.9947586249513,0.15673216412337643
2.05,525.6396880614476,0.15713794215332347
2.06,525.8356625949767,0.1575107032183851
2.07,526.0484448116661,0.15791527672243078
2.07,526.2500594460708,0.15829846578153522
2.08,526.4575186457953,0.15869260980923613
2.09,526.6671690324544,0.159090759034834
2.09,526.8644847724878,0.15946533865306942
2.1,528.5146920173299,0.1598714820979757
2.11,528.7096868886064,0.1602403628717795
2.11,528.9201971778062,0.16063844219073817
2.12,529.1232226354438,0.16102221748072643
2.13,529.3272330706462,0.16140770635576815
2.13,529.5370454889494,0.16180400345502338
2.14,529.7321751750761,0.1621724266745927
2.15,531.3840006624623,0.16257209681078275
2.15,531.5804366295495,0.16294169707666506
2.16,531.7886970227295,0.16333339623221133
2.17,531.9919169430909,0.1637154673475629
2.17,532.1937141445853,0.164094719233734
2.18,532.4036864543106,0.1644891825535388
2.19,532.5966512383199,0.16485155762383957
2.19,532.8073645236473,0.16524711327213357
2.2,533.0034955079961,0.1656151541580314
2.21,534.653981648759,0.16600058462066392
2.21,534.8573935951707,0.16638096757604484
2.22,535.0569989098043,0.1667540914789433
2.23,535.2671290054993,0.1671467390758989
2.23,535.4579497467791,0.16750317182803423
2.24,535.6676256562858,0.16789467758048712
2.25,535.8639812794247,0.1682611728365594
2.25,536.0672573646658,0.16864044359637975
2.26,536.2726837144803,0.16902358022023936
2.27,536.4683979823793,0.16938846653513825
2.27,538.1262222705913,0.16977489980053853
2.28,538.3172930922257,0.1701299037016521
2.29,538.5247551114362,0.17051521930503785
2.29,538.7225162591941,0.17088237948308674
2.3,538.9236127972514,0.17125559390843334
2.31,539.1280334912816,0.1716348349163834
2.31,539.3204309911126,0.17199163917399718
2.32,539.5291263813463,0.17237852424320935
2.33,539.7199288581866,0.17273210802056246
2.33,539.9246449922102,0.17311133678053664
2.34,540.1209116086582,0.17347477815096554
2.35,540.3193158712646,0.17384204375213505
2.35,540.5245387828038,0.17422178947233644
2.36,540.7131417410611,0.17457065441399994
2.37,540.921434208947,0.1749557982973259
