Time (min),Force (N),Position (mm)
0.00667,1.6156670746634028,0.00019287617743033825
0.0133,7.4541003671970625,0.0008811127194914721
0.02,12.851897184822523,0.0015448538285251561
0.0267,18.482252141982865,0.0022351503914459342
0.0333,20.685434516523866,0.002885351443657134
0.04,16.523867809057528,0.003562069452508356
0.0467,15.17747858017136,0.004214446731353523
0.0533,18.482252141982865,0.00486986910512727
0.06,23.50061199510404,0.005540003523677153
0.0667,28.518971848225213,0.006189794273462138
0.0733,33.65973072215422,0.006865919079122289
0.08,38.555691554467565,0.007506222623387686
0.0867,43.696450428396574,0.008168939287443576
0.0933,48.71481028151775,0.008823035889191099
0.1,53.85556915544676,0.009472407567006853
0.107,59.1187270501836,0.010140217145618507
0.113,64.13708690330478,0.010780159521435692
0.12,69.40024479804161,0.01144620749510588
0.127,74.29620563035496,0.012088305303607823
0.133,79.31456548347613,0.012737244293115981
0.14,83.84332925336598,0.013392995867126566
0.147,88.24969400244798,0.01403256797934903
0.153,92.90085679314565,0.014698067023806292
0.16,97.18482252141983,0.015328314350620653
0.167,101.71358629130967,0.015984441706763365
0.173,106.11995104039168,0.016624466692993257
0.18,110.52631578947368,0.01726746188042389
0.187,114.81028151774787,0.017917211194197206
0.193,119.09424724602204,0.01854714064914992
0.2,123.62301101591187,0.019206561276421574
0.207,127.29498164014689,0.01983105591979594
0.213,132.19094247246022,0.02047742084763411
0.22,135.86291309669525,0.02111538891393909
0.227,140.7588739290086,0.021752526497411884
0.233,144.4308445532436,0.022403885752113953
0.24,149.3268053855569,0.02302431669397583
0.247,152.99877600979195,0.023677736777367776
0.253,156.67074663402695,0.024296552386440025
0.26,161.56670746634026,0.0249370431791659
0.267,165.2386780905753,0.02557295542955353
0.273,170.13463892288863,0.026200572011317546
0.28,173.80660954712363,0.026849751731747685
0.287,177.47858017135866,0.027460830410610634
0.293,182.37454100367196,0.028104612676729996
0.3,186.04651162790697,0.028721545174007976
0.307,189.718482252142,0.029356241545081437
0.313,193.390452876377,0.0299901089542606
0.32,198.28641370869033,0.030608350507594844
0.327,201.95838433292536,0.03125166861179127
0.333,205.63035495716036,0.03185723324617508
0.34,209.30232558139537,0.032495210089475146
0.347,212.97429620563037,0.033106582869237185
0.353,216.64626682986537,0.033731887228141993
0.36,220.31823745410037,0.034363725531194995
0.367,223.99020807833537,0.03497273987956156
0.373,227.66217870257037,0.03561028024254022
0.38,231.33414932680537,0.03621040968646483
0.387,235.00611995104038,0.036842664078023335
0.393,238.67809057527543,0.03745220419655681
0.4,242.35006119951044,0.03807190223174894
0.407,246.02203182374544,0.03870171746913627
0.413,248.47001223990208,0.03929800673247853
0.42,252.14198286413708,0.03992984684235195
0.427,255.81395348837208,0.04052461394336829
0.433,259.4859241126071,0.04114760286900718
0.44,261.9339045287638,0.04175893823872275
0.447,265.60587515299875,0.042373105010952386
0.453,269.2778457772338,0.04299730230735611
0.46,271.7258261933905,0.04359187730865249
0.467,275.3977968176255,0.04421808384540416
0.473,277.8457772337821,0.04481114336858256
0.48,281.5177478580172,0.0454249925776156
0.487,283.9657282741738,0.04603447045523686
0.493,286.4137086903305,0.04663601388758563
0.5,290.0856793145655,0.047258241778851386
0.507,292.5336597307222,0.04784396636714987
0.513,294.9816401468788,0.04846461899249636
0.52,297.4296205630355,0.04905242192121362
0.527,299.8776009791922,0.049664389353247976
0.533,302.3255813953488,0.050268467417478056
0.54,304.7735618115055,0.05086468469276415
0.547,307.2215422276622,0.051481406794978084
0.553,308.4455324357405,0.0520584141011909
0.56,310.8935128518972,0.052673586376401876
0.567,312.1175030599755,0.05325620229007634
0.573,314.5654834761322,0.05385924852584566
0.58,315.7894736842105,0.054465046848651125
0.587,317.0134638922889,0.05504897748114748
0.593,319.46144430844555,0.055663786565144334
0.6,320.6854345165239,0.056235718134021964
0.607,321.9094247246022,0.056841980186255144
0.613,323.1334149326805,0.05742647740977828
0.62,324.3574051407589,0.05802073096107846
0.627,326.80538555691555,0.05862121363739127
0.633,328.0293757649939,0.05920002370519625
0.64,329.2533659730722,0.059805964679797305
0.647,330.4773561811506,0.06037289138798461
0.653,331.7013463892289,0.060977322972043745
0.66,331.7013463892289,0.06155670746801349
0.667,334.1493268053856,0.06214576617890862
0.673,335.3733170134639,0.06274446133636405
0.68,336.5973072215422,0.06331130516875148
0.687,337.8212974296206,0.06391886314051536
0.693,339.0452876376989,0.06448428775579357
0.7,340.26927784577725,0.06507656065959953
0.707,340.26927784577725,0.06565777324911992
0.713,342.7172582619339,0.06623826364431766
0.72,343.9412484700122,0.06683517517046791
0.727,343.9412484700122,0.06739365901121698
0.733,346.3892288861689,0.0679959344074619
0.74,346.3892288861689,0.0685530301363433
0.747,347.61321909424726,0.06914357544151546
0.753,348.8372093023256,0.06971974391655313
0.76,350.0611995104039,0.07029179660619904
0.767,351.28518971848223,0.07088693718244635
0.773,351.28518971848223,0.07143718857502167
0.78,352.5091799265606,0.0720274738322708
0.787,353.73317013463895,0.07258992043989909
0.793,354.9571603427173,0.07316859574095427
0.8,356.1811505507956,0.07374654934122958
0.807,357.4051407588739,0.0743069146357908
0.813,358.6291309669523,0.0748969274923151
0.82,358.6291309669523,0.0754424408319562
0.827,359.8531211750306,0.07602764641687887
0.833,361.07711138310896,0.07658525590221983
0.84,361.07711138310896,0.07716231043678563
0.847,362.3011015911873,0.07773864420318799
0.853,363.5250917992656,0.07829084641204755
0.86,364.74908200734393,0.07887913371121048
0.867,364.74908200734393,0.07941996208949924
0.873,365.9730722154223,0.08000014488186695
0.88,367.1970624235006,0.08055629963729033
0.887,368.42105263157896,0.0811184308107502
0.893,368.42105263157896,0.08169647537753484
0.9,369.6450428396573,0.0822406336152854
0.907,370.8690330477356,0.08282389135435135
0.913,370.8690330477356,0.08336340671237821
0.92,372.09302325581393,0.08393532727672727
0.927,373.3170134638923,0.0844933355440056
0.933,374.54100367197066,0.08504736861064084
0.94,374.54100367197066,0.08561719039682054
0.947,375.76499388004896,0.08615342548552597
0.953,376.9889840881273,0.0867317220500356
0.96,376.9889840881273,0.08726993093436249
0.967,378.21297429620563,0.08783371280408538
0.973,378.21297429620563,0.08839025510716798
0.98,379.436964504284,0.08893958306431943
0.987,380.6609547123623,0.08951109613544062
0.993,380.6609547123623,0.09003951521317795
1.0,381.88494492044066,0.09060964956249017
1.01,383.108935128519,0.09114329879200779
1.01,383.108935128519,0.09170555525755869
1.02,384.3329253365973,0.09226062841295708
1.03,384.3329253365973,0.09279882278146452
1.03,385.55691554467563,0.09336550576997897
1.04,386.780905752754,0.09388946164904984
1.05,386.780905752754,0.09445478334652435
1.05,388.0048959608323,0.09498715523108114
1.06,388.0048959608323,0.09553822597300858
1.07,389.22888616891066,0.09609184276268498
1.07,390.452876376989,0.09662550503613498
1.08,390.452876376989,0.09719062784349408
1.09,391.67686658506733,0.09771017314018174
1.09,391.67686658506733,0.09826753763135472
1.1,392.90085679314564,0.09879863471541198
1.11,392.90085679314564,0.09934507494229071
1.11,394.124847001224,0.09989404264517754
1.12,394.124847001224,0.10042004009151632
1.13,395.34883720930236,0.10098042685732489
1.13,395.34883720930236,0.10149562067550551
1.14,396.57282741738067,0.10205149416510233
1.15,396.57282741738067,0.10257814459797975
1.15,397.796817625459,0.10311684551364217
1.16,399.02080783353733,0.10366438936254306
1.17,399.02080783353733,0.10418599073855281
1.17,400.24479804161564,0.10473854135825968
1.18,400.24479804161564,0.1052525900119417
1.19,401.468788249694,0.105800678042478
1.19,401.468788249694,0.10632922971912702
1.2,402.69277845777236,0.10686029747881431
1.21,402.69277845777236,0.10740328152289651
1.21,402.69277845777236,0.10791427547888145
1.22,403.9167686658507,0.10846536703849043
1.23,403.9167686658507,0.10897514601932894
1.23,405.14075887392903,0.10951556244259181
1.24,405.14075887392903,0.11004596927906717
1.25,406.36474908200734,0.11056951564557246
1.25,407.5887392900857,0.11111422182249582
1.26,407.5887392900857,0.11161165537527414
1.27,407.5887392900857,0.11215818964161252
1.27,408.81272949816406,0.11266685531229585
1.28,408.81272949816406,0.11319970812399843
1.29,410.03671970624237,0.11372882893570696
1.29,410.03671970624237,0.11424496357593955
1.3,411.2607099143207,0.11478517857640728
1.31,411.2607099143207,0.11528159472234123
1.31,411.2607099143207,0.11582362421807828
1.32,412.48470012239903,0.11633117402709453
1.33,412.48470012239903,0.11685963631306284
1.33,413.70869033047734,0.11738746690203002
1.34,413.70869033047734,0.11789628682956646
1.35,414.9326805385557,0.11843511821299164
1.35,414.9326805385557,0.11892745026622961
1.36,414.9326805385557,0.11946197046384248
1.37,416.15667074663406,0.11996840201506448
1.37,416.15667074663406,0.12048643333010152
1.38,417.38066095471237,0.12101298063114037
1.39,417.38066095471237,0.12151155350651777
1.39,417.38066095471237,0.12204597852123508
1.4,418.60465116279073,0.12253731807331304
1.41,418.60465116279073,0.12306444095358111
1.41,418.60465116279073,0.12357278658997355
1.42,419.82864137086904,0.12408356380740874
1.43,419.82864137086904,0.12460581413382503
1.43,419.82864137086904,0.12509730709084524
1.44,421.05263157894734,0.12562737956721998
1.45,421.05263157894734,0.1261177263922768
1.45,422.2766217870257,0.12663755458515283
1.46,422.2766217870257,0.12714476682050455
1.47,422.2766217870257,0.12765139026266625
1.47,423.50061199510407,0.1281723884644164
1.48,423.50061199510407,0.12865390750695535
1.49,424.72460220318237,0.12918266593527153
1.49,424.72460220318237,0.12967201655679061
1.5,424.72460220318237,0.13018464741657992
1.51,424.72460220318237,0.13069369958280144
1.51,425.94859241126073,0.13119026933101652
1.52,425.94859241126073,0.13171001849389294
1.53,425.94859241126073,0.13218763879872905
1.53,427.17258261933904,0.13270619568743278
1.54,427.17258261933904,0.13319455345869025
1.55,427.17258261933904,0.13370008969955766
1.55,428.3965728274174,0.1342079877834702
1.56,428.3965728274174,0.13469760406623993
1.57,428.3965728274174,0.13521316654977292
1.57,429.62056303549576,0.13568988280771482
1.58,429.62056303549576,0.13620132630505016
1.59,429.62056303549576,0.13669162556888284
1.59,430.84455324357407,0.137190161250327
1.6,430.84455324357407,0.1376969038565997
1.61,430.84455324357407,0.13817673484344675
1.61,432.06854345165243,0.13869400239402374
1.62,432.06854345165243,0.1391639723176824
1.63,432.06854345165243,0.1396742278237484
1.63,432.06854345165243,0.14016059362770986
1.64,433.29253365973074,0.1406551320481504
1.65,433.29253365973074,0.1411578139423223
1.65,433.29253365973074,0.14163090128755365
1.66,433.29253365973074,0.1421382373304963
1.67,433.29253365973074,0.1426102454700116
1.67,434.51652386780904,0.14311353408316524
1.68,434.51652386780904,0.1435989075828585
1.69,434.51652386780904,0.14408373152535064
1.69,435.7405140758874,0.14458817308955219
1.7,435.7405140758874,0.14505173446787886
1.71,435.7405140758874,0.14556078460394722
1.71,435.7405140758874,0.14603190613075126
1.72,436.96450428396577,0.14652545135027065
1.73,436.96450428396577,0.1470126974212246
1.73,436.96450428396577,0.14749080364095266
1.74,438.1884944920441,0.14799123839808936
1.75,438.1884944920441,0.14845111975325198
1.75,438.1884944920441,0.14895327954539364
1.76,438.1884944920441,0.1494206684080102
1.77,438.1884944920441,0.1499131505758167
1.77,439.41248470012243,0.15039937918946764
1.78,439.41248470012243,0.15087085882392273
1.79,439.41248470012243,0.15136449897094595
1.79,439.41248470012243,0.15182357930449533
1.8,440.63647490820074,0.15231894166686136
1.81,440.63647490820074,0.15278829380234618
1.81,440.63647490820074,0.15327123989092536
1.82,440.63647490820074,0.15375645510578045
1.83,440.63647490820074,0.1542214008624278
1.83,441.86046511627904,0.154713967186928
1.84,441.86046511627904,0.15516943176829026
1.85,441.86046511627904,0.1556608948000013
1.85,441.86046511627904,0.15612935806029357
1.86,443.08445532435746,0.1566029027470174
1.87,443.08445532435746,0.15708990266711356
1.87,443.08445532435746,0.1575428110872673
1.88,443.08445532435746,0.15803989034629753
1.89,443.08445532435746,0.15849177872972017
1.89,444.30844553243577,0.15897660034501826
1.9,444.30844553243577,0.1594441741869939
1.91,444.30844553243577,0.1599112284148451
1.91,444.30844553243577,0.16039441629231496
1.92,444.30844553243577,0.16084655385448948
1.93,445.5324357405141,0.16133143587322238
1.93,445.5324357405141,0.16178533124329675
1.94,445.5324357405141,0.1622608403117445
1.95,445.5324357405141,0.16273029037436504
1.95,445.5324357405141,0.16319370089116578
1.96,445.5324357405141,0.16367587501234732
1.97,445.5324357405141,0.16411898470074474
1.97,446.75642594859244,0.1646028410081336
1.98,446.75642594859244,0.16505320320435488
1.99,446.75642594859244,0.1655277544154752
1.99,446.75642594859244,0.16599628966853278
2.0,446.75642594859244,0.16645062204442754
2.01,447.98041615667074,0.16693178352033636
2.01,447.98041615667074,0.16736872125537194
2.02,447.98041615667074,0.1678488236855124
2.03,447.98041615667074,0.16829841714746005
2.03,447.98041615667074,0.16876384711799955
2.04,447.98041615667074,0.1692314736983264
2.05,447.98041615667074,0.1696822890617083
2.05,449.20440636474905,0.1701570167471462
2.06,449.20440636474905,0.1705932870302342
2.07,449.20440636474905,0.1710669738722921
2.07,449.20440636474905,0.17151579991128044
2.08,449.20440636474905,0.17197763687633455
2.09,449.20440636474905,0.17244435176979617
2.09,449.20440636474905,0.17288360779052464
2.1,450.42839657282747,0.1733600635276046
2.11,450.42839657282747,0.17379297333693308
2.11,450.42839657282747,0.1742603290605098
2.12,450.42839657282747,0.17471106764444996
2.13,450.42839657282747,0.17516399298564658
2.13,450.42839657282747,0.17562979935997716
2.14,450.42839657282747,0.17606300847292689
2.15,451.6523867809058,0.1765331396781347
2.15,451.6523867809058,0.1769680670090566
2.16,451.6523867809058,0.17742917470886174
2.17,451.6523867809058,0.17787912233741268
2.17,451.6523867809058,0.17832591993530128
2.18,451.6523867809058,0.17879081797607502
2.19,451.6523867809058,0.17921805978782465
2.19,451.6523867809058,0.17968459841685586
2.2,451.6523867809058,0.18011885048789383
2.21,452.87637698898413,0.18057379191090836
2.21,452.87637698898413,0.1810229474790661
2.22,452.87637698898413,0.18146369759272987
2.23,452.87637698898413,0.18192768756079178
2.23,452.87637698898413,0.18234904038680685
2.24,452.87637698898413,0.1828120274626635
2.25,452.87637698898413,0.18324560190618902
2.25,452.87637698898413,0.18369445747819435
2.26,452.87637698898413,0.18414806106683884
2.27,452.87637698898413,0.18458021932865912
2.27,454.10036719706244,0.18503806898941513
2.28,454.10036719706244,0.18545883680956413
2.29,454.10036719706244,0.18591570060928123
2.29,454.10036719706244,0.18635120157348148
2.3,454.10036719706244,0.18679404758855622
2.31,454.10036719706244,0.18724421391476304
2.31,454.10036719706244,0.1876679032877063
2.32,454.10036719706244,0.18812748316323433
2.33,454.10036719706244,0.1885476600461953
2.33,454.10036719706244,0.1889984769774548
2.34,454.10036719706244,0.18943068675006383
2.35,454.10036719706244,0.18986760395370125
2.35,454.10036719706244,0.19031953688827685
2.36,454.10036719706244,0.190734870087458
2.37,454.10036719706244,0.19119356266498536
